Time (ms),Voltage (V)
0.0,44.38
10.0,214.21
19.0,424.39
29.0,455.06
39.0,328.49
50.0,260.23
59.0,274.29
69.0,248.46
79.0,180.73
90.0,141.48
100.0,124.13
109.0,96.41
119.0,57.67
130.0,13.28
140.0,-27.12
149.0,-55.73
159.0,-75.21
169.0,-86.35
180.0,-81.2
189.0,-58.63
199.0,-45.7
209.0,-61.29
220.0,-84.92
229.0,-102.11
239.0,-120.71
249.0,-143.3
260.0,-164.03
270.0,-171.36
279.0,-167.9
289.0,-172.96
300.0,-185.04
310.0,-176.08
319.0,-142.67
329.0,-145.92
339.0,-205.68
350.0,-238.75
359.0,-220.05
369.0,-202.5
379.0,-185.92
390.0,-154.74
399.0,-135.07
409.0,-136.97
419.0,-131.78
430.0,-115.21
440.0,-116.66
449.0,-128.31
459.0,-121.64
470.0,-112.45
480.0,-125.39
489.0,-133.63
499.0,-105.37
509.0,-70.78
520.0,-70.98
529.0,-95.06
539.0,-107.01
549.0,-87.73
560.0,-53.96
570.0,-37.89
579.0,-47.66
589.0,-61.02
600.0,-55.72
610.0,-37.37
619.0,-18.25
629.0,3.62
640.0,22.49
650.0,23.29
659.0,4.51
669.0,-11.99
679.0,3.58
690.0,46.25
699.0,85.74
709.0,93.82
719.0,43.48
730.0,-31.98
740.0,-45.05
749.0,17.23
759.0,79.71
770.0,98.97
780.0,88.68
789.0,61.81
799.0,42.05
809.0,58.04
820.0,86.04
829.0,85.18
839.0,61.32
849.0,43.13
860.0,45.29
869.0,55.77
879.0,56.16
889.0,55.84
900.0,64.69
910.0,65.79
919.0,53.33
929.0,63.78
940.0,106.69
950.0,123.05
959.0,108.27
969.0,114.0
979.0,124.64
990.0,115.98
999.0,110.64
1009.0,118.02
1019.0,111.65
1030.0,64.2
1039.0,14.95
1049.0,19.31
1059.0,51.58
1070.0,62.76
1080.0,54.99
1089.0,64.61
1099.0,83.89
1110.0,73.42
1120.0,53.15
1129.0,44.89
1139.0,48.85
1149.0,82.74
1160.0,111.25
1169.0,85.13
1179.0,37.48
1189.0,25.16
1200.0,47.86
1210.0,62.5
1219.0,58.99
1229.0,54.04
1240.0,43.41
1250.0,33.11
1259.0,29.58
1269.0,32.2
1280.0,49.18
1290.0,58.83
1299.0,45.11
1309.0,27.28
1319.0,15.68
1330.0,22.42
1339.0,41.6
1349.0,41.37
1359.0,19.57
1370.0,-3.22
1380.0,-15.74
1389.0,-26.85
1399.0,-35.63
1410.0,-30.52
1420.0,-33.33
1429.0,-42.37
1439.0,-35.49
1449.0,-31.76
1460.0,-38.41
1469.0,-39.15
1479.0,-27.09
1489.0,-8.98
1500.0,-9.53
1509.0,-25.17
1519.0,-27.76
1529.0,-18.65
1540.0,-16.08
1550.0,-23.52
1559.0,-29.63
1569.0,-36.38
1580.0,-51.76
1590.0,-55.74
1599.0,-48.19
1609.0,-62.41
1619.0,-109.61
1630.0,-178.09
1639.0,-226.65
1649.0,-241.64
1659.0,-276.9
1670.0,-301.75
1679.0,-248.38
1689.0,-185.03
1699.0,-177.23
1710.0,-155.05
1720.0,-67.3
1729.0,7.33
1739.0,16.24
1750.0,19.09
1760.0,50.41
1769.0,83.54
1779.0,108.43
1789.0,132.48
1800.0,154.21
1809.0,168.71
1819.0,185.18
1829.0,202.27
1840.0,190.91
1850.0,167.45
1859.0,171.85
1869.0,189.21
1880.0,190.13
1890.0,174.27
1899.0,168.42
1909.0,183.75
1920.0,192.71
1930.0,173.48
1939.0,128.69
1949.0,88.85
1959.0,73.08
1970.0,61.54
1979.0,71.43
1989.0,135.5
1999.0,237.37
2010.0,328.91
2020.0,362.19
2029.0,357.43
2039.0,348.92
2050.0,318.1
2060.0,265.35
2069.0,212.32
2079.0,166.06
2089.0,123.44
2100.0,60.81
2109.0,-35.05
2119.0,-136.06
2129.0,-236.61
2140.0,-339.53
2149.0,-409.49
2159.0,-424.56
2169.0,-409.55
2180.0,-406.7
2190.0,-408.63
2199.0,-393.02
2209.0,-385.13
2220.0,-393.84
2230.0,-387.47
2239.0,-355.78
2249.0,-328.88
2259.0,-325.26
2270.0,-312.0
2279.0,-269.4
2289.0,-228.93
2299.0,-210.63
2310.0,-196.92
2319.0,-168.61
2329.0,-140.45
2339.0,-138.12
2350.0,-138.68
2360.0,-111.84
2369.0,-85.46
2379.0,-88.68
2390.0,-93.32
2400.0,-56.98
2409.0,-0.32
2419.0,-0.97
2429.0,-78.71
2440.0,-120.79
2449.0,-34.75
2459.0,77.24
2469.0,89.22
2480.0,46.31
2490.0,45.92
2499.0,94.61
2509.0,124.74
2520.0,108.85
2530.0,91.98
2539.0,93.99
2549.0,100.34
2560.0,114.39
2570.0,127.68
2579.0,112.08
2589.0,77.56
2599.0,66.83
2610.0,84.31
2619.0,99.98
2629.0,99.1
2639.0,82.25
2650.0,68.5
2660.0,78.2
2669.0,89.54
2679.0,87.43
2690.0,93.39
2700.0,100.1
2709.0,90.27
2719.0,83.36
2729.0,91.3
2740.0,98.85
2749.0,93.29
2759.0,83.19
2769.0,82.95
2780.0,72.28
2789.0,34.86
2799.0,2.97
2809.0,1.86
2820.0,24.92
2830.0,55.29
2839.0,70.35
2849.0,69.06
2860.0,75.86
2870.0,86.27
2879.0,70.88
2889.0,48.17
2899.0,53.73
2910.0,65.57
2919.0,59.13
2929.0,51.44
2939.0,47.17
2950.0,37.33
2959.0,30.38
2969.0,32.4
2979.0,40.33
2990.0,47.82
3000.0,41.14
3009.0,22.29
3019.0,19.75
3030.0,41.96
3040.0,64.32
3049.0,76.22
3059.0,72.31
3069.0,38.71
3080.0,-4.8
3089.0,-21.27
3099.0,-15.99
3109.0,-27.48
3120.0,-54.02
3130.0,-49.19
3139.0,-18.74
3149.0,-5.14
3160.0,-4.62
3170.0,-4.92
3179.0,-7.11
3189.0,0.73
3200.0,10.32
3210.0,-5.74
3219.0,-36.26
3229.0,-45.79
3239.0,-39.79
3250.0,-43.82
3259.0,-46.41
3269.0,-27.1
3279.0,-8.92
3290.0,-18.85
3300.0,-29.0
3309.0,-15.29
3319.0,4.79
3330.0,26.76
3340.0,31.3
3349.0,-23.99
3359.0,-91.16
3369.0,-68.16
3380.0,10.47
3389.0,19.73
3399.0,-37.28
3409.0,-69.0
3420.0,-61.62
3429.0,-49.54
3439.0,-34.53
3449.0,-9.98
3460.0,7.32
3470.0,8.28
3479.0,2.91
3489.0,-15.67
3500.0,-50.15
3510.0,-62.37
3519.0,-33.77
3529.0,-13.32
3539.0,-30.47
3550.0,-43.2
3559.0,-27.39
3569.0,-17.44
3579.0,-27.85
3590.0,-30.91
3599.0,-14.74
3609.0,5.86
3619.0,11.17
3630.0,-8.38
3640.0,-30.94
3649.0,-37.66
3659.0,-43.79
3670.0,-57.37
3680.0,-68.55
3689.0,-64.4
3699.0,-38.82
3709.0,-16.81
3720.0,-22.07
3729.0,-35.81
3739.0,-35.98
3749.0,-25.11
3760.0,-8.99
3770.0,2.7
3779.0,-4.34
3789.0,-13.0
3800.0,10.94
3810.0,39.06
3819.0,24.63
3829.0,5.59
3840.0,19.19
3850.0,24.91
3859.0,9.91
3869.0,15.47
3879.0,30.81
3890.0,5.37
3899.0,-35.77
3909.0,-35.96
3919.0,-11.14
3930.0,11.31
3940.0,28.9
3949.0,15.71
3959.0,-19.11
3970.0,-17.88
3980.0,4.52
3989.0,-10.33
3999.0,-35.83
4009.0,-32.74
4020.0,-26.62
4029.0,-26.18
4039.0,-23.01
4049.0,-19.72
4060.0,-8.43
4069.0,16.38
4079.0,47.08
4089.0,52.25
4100.0,30.18
4110.0,34.61
4119.0,56.21
4129.0,32.37
4140.0,-20.3
4150.0,-37.57
4159.0,-16.93
4169.0,-11.08
4179.0,-18.92
4190.0,-1.3
4199.0,23.5
4209.0,40.31
4219.0,49.69
4230.0,14.6
4239.0,-49.87
4249.0,-60.66
4259.0,-1.88
4270.0,43.04
4280.0,32.28
4289.0,18.27
4299.0,15.02
4310.0,-4.89
4320.0,-12.63
4329.0,17.74
4339.0,49.24
4349.0,36.12
4360.0,-0.5
4369.0,-7.28
4379.0,3.57
4389.0,5.74
4400.0,9.95
4410.0,12.21
4419.0,9.46
4429.0,17.23
4440.0,38.51
4450.0,56.91
4459.0,58.74
4469.0,53.5
4480.0,50.99
4490.0,52.53
4499.0,57.43
4509.0,43.8
4519.0,14.83
4530.0,6.09
4539.0,13.73
4549.0,6.62
4559.0,-30.08
4570.0,-59.06
4580.0,-40.33
4589.0,-21.16
4599.0,-31.55
4610.0,-28.56
4620.0,-11.4
4629.0,-9.59
4639.0,-10.78
4649.0,6.45
4660.0,-6.85
4669.0,-110.73
4679.0,-243.9
4689.0,-305.61
4700.0,-284.37
4709.0,-235.91
4719.0,-201.48
4729.0,-168.21
4740.0,-130.0
4750.0,-105.8
4759.0,-90.4
4769.0,-67.64
4780.0,-24.73
4790.0,37.81
4799.0,80.71
4809.0,87.34
4819.0,87.59
4830.0,101.33
4839.0,128.36
4849.0,151.91
4859.0,174.62
4870.0,215.55
4879.0,250.38
4889.0,253.51
4899.0,239.38
4910.0,232.28
4920.0,223.35
4929.0,193.2
4939.0,177.18
4950.0,187.59
4960.0,178.57
4969.0,157.98
4979.0,153.43
4989.0,142.6
5000.0,109.91
5009.0,79.05
5019.0,74.68
5029.0,74.03
5040.0,53.29
5050.0,31.35
5059.0,38.8
5069.0,132.21
5080.0,290.87
5090.0,378.88
5099.0,376.3
5109.0,354.96
5120.0,315.65
5130.0,258.74
5139.0,207.24
5149.0,149.44
5159.0,68.67
5170.0,-15.93
5179.0,-87.94
5189.0,-154.36
5199.0,-229.56
5210.0,-312.82
5220.0,-374.09
5229.0,-397.58
5239.0,-399.18
5250.0,-387.45
5260.0,-370.49
5269.0,-371.4
5279.0,-373.58
5289.0,-347.73
5300.0,-311.65
5309.0,-294.17
5319.0,-303.52
5329.0,-302.7
5340.0,-251.89
5349.0,-191.39
5359.0,-184.53
5369.0,-220.34
5380.0,-230.63
5390.0,-190.14
5399.0,-142.32
5409.0,-116.65
5420.0,-107.78
5430.0,-97.21
5439.0,-76.46
5449.0,-67.05
5459.0,-66.53
5470.0,-56.32
5479.0,-64.29
5489.0,-86.28
5499.0,-70.72
5510.0,-33.65
5519.0,-27.05
5529.0,-40.68
5539.0,-33.97
5550.0,-2.26
5560.0,32.52
5569.0,56.9
5579.0,71.65
5590.0,82.5
5600.0,83.1
5609.0,65.1
5619.0,59.0
5629.0,82.74
5640.0,98.89
5649.0,94.81
5659.0,95.84
5669.0,110.49
5680.0,119.55
5690.0,110.82
5699.0,107.35
5709.0,119.68
5720.0,122.47
5730.0,103.63
5739.0,90.28
5749.0,110.21
5760.0,141.23
5770.0,136.57
5779.0,85.73
5789.0,32.08
5799.0,31.05
5810.0,65.39
5819.0,76.98
5829.0,72.96
5839.0,78.87
5850.0,89.98
5860.0,112.01
5869.0,125.52
5879.0,105.35
5890.0,99.21
5900.0,138.51
5909.0,153.77
5919.0,81.3
5929.0,-9.04
5940.0,-7.63
5949.0,53.11
5959.0,77.4
5969.0,62.55
5980.0,49.61
5989.0,43.73
5999.0,36.69
6009.0,34.21
6020.0,34.67
6030.0,32.09
6039.0,36.14
6049.0,39.74
6060.0,21.99
6070.0,4.7
6079.0,18.72
6089.0,34.87
6099.0,19.72
6110.0,5.84
6119.0,15.92
6129.0,19.27
6139.0,14.65
6150.0,17.5
6159.0,5.23
6169.0,-14.08
6179.0,3.34
6190.0,31.13
6200.0,11.4
6209.0,-30.22
6219.0,-48.18
6230.0,-62.83
6240.0,-89.28
6249.0,-96.56
6259.0,-66.74
6269.0,-12.7
6280.0,28.25
6289.0,18.46
6299.0,-15.25
6309.0,-21.41
6320.0,-10.5
6330.0,-15.08
6339.0,-33.81
6349.0,-47.0
6360.0,-45.39
6370.0,-38.81
6379.0,-36.64
6389.0,-37.47
6400.0,-32.7
6410.0,-18.0
6419.0,-16.25
6429.0,-33.76
6439.0,-34.41
6450.0,-23.15
6459.0,-39.67
6469.0,-65.89
6479.0,-65.74
6490.0,-57.35
6500.0,-60.9
6509.0,-58.61
6519.0,-42.63
6530.0,-32.81
6540.0,-34.02
6549.0,-31.67
6559.0,-36.27
6569.0,-61.53
6580.0,-77.31
6589.0,-59.28
6599.0,-32.6
6609.0,-21.98
6620.0,-16.3
6629.0,-1.92
6639.0,5.59
6649.0,-6.63
6660.0,-17.9
6670.0,-16.4
6679.0,-11.5
6689.0,4.54
6700.0,32.53
6710.0,41.58
6719.0,18.82
6729.0,-13.67
6739.0,-34.0
6750.0,-31.77
6759.0,-15.56
6769.0,-7.76
6779.0,-7.72
6790.0,1.65
6799.0,15.85
6809.0,15.56
6819.0,4.54
6830.0,21.2
6840.0,62.42
6849.0,42.55
6859.0,-49.6
6870.0,-88.93
6880.0,-32.36
6889.0,13.29
6899.0,-2.67
6909.0,-20.75
6920.0,-13.83
6929.0,-9.97
6939.0,-13.79
6949.0,-12.87
6960.0,-2.95
6970.0,17.52
6979.0,32.52
6989.0,24.48
7000.0,9.31
7010.0,-4.01
7019.0,-49.12
7029.0,-101.03
7040.0,-61.58
7050.0,40.62
7059.0,71.31
7069.0,35.33
7079.0,34.91
7090.0,73.16
7099.0,84.54
7109.0,62.29
7119.0,49.63
7130.0,52.77
7140.0,45.54
7149.0,34.87
7159.0,34.48
7170.0,24.78
7180.0,-3.5
7189.0,-23.7
7199.0,-14.46
7209.0,2.9
7220.0,-0.82
7229.0,-17.13
7239.0,-22.18
7249.0,-12.8
7260.0,-12.25
7269.0,-21.79
7279.0,-11.21
7289.0,2.64
7300.0,-8.32
7310.0,-10.99
7319.0,11.26
7329.0,24.36
7340.0,15.56
7350.0,2.59
7359.0,-9.49
7369.0,-18.24
7379.0,-11.82
7390.0,-0.01
7399.0,1.43
7409.0,0.05
7419.0,3.49
7430.0,12.82
7439.0,13.6
7449.0,-5.09
7459.0,-3.09
7470.0,35.85
7480.0,50.84
7489.0,15.04
7499.0,-14.92
7510.0,-3.3
7520.0,11.84
7529.0,6.5
7539.0,13.28
7549.0,41.83
7560.0,47.55
7569.0,-0.02
7579.0,-51.97
7589.0,-54.55
7600.0,-40.98
7610.0,-38.92
7619.0,-21.95
7629.0,2.73
7640.0,3.34
7650.0,-21.33
7659.0,-33.55
7669.0,-9.96
7680.0,0.45
7690.0,-43.77
7699.0,-129.24
7709.0,-232.77
7719.0,-298.6
7730.0,-281.6
7739.0,-231.67
7749.0,-217.05
7759.0,-229.88
7770.0,-210.62
7780.0,-144.28
7789.0,-89.82
7799.0,-71.99
7810.0,-55.02
7820.0,-26.6
7829.0,11.74
7839.0,68.2
7849.0,111.94
7860.0,127.26
7869.0,161.63
7879.0,217.44
7889.0,247.06
7900.0,251.29
7909.0,248.78
7919.0,242.84
7929.0,250.06
7940.0,274.8
7950.0,282.49
7959.0,243.08
7969.0,196.45
7980.0,203.13
7990.0,240.63
7999.0,260.31
8009.0,250.04
8019.0,207.69
8030.0,162.32
8039.0,140.24
8049.0,121.35
8059.0,95.14
8070.0,79.46
8079.0,73.25
8089.0,43.93
8099.0,20.16
8110.0,85.71
8120.0,215.39
8129.0,297.51
8139.0,296.01
8150.0,271.46
8160.0,253.06
8169.0,207.6
8179.0,147.48
8189.0,107.33
8200.0,58.35
8209.0,-30.81
8219.0,-123.45
8229.0,-187.84
8240.0,-233.68
8250.0,-272.48
8259.0,-313.2
8269.0,-364.33
8280.0,-410.7
8290.0,-395.87
8299.0,-325.32
8309.0,-288.51
8320.0,-296.72
8330.0,-290.2
8339.0,-266.73
8349.0,-267.41
8359.0,-295.06
8370.0,-306.26
8379.0,-278.38
8389.0,-235.38
8399.0,-217.79
8410.0,-232.79
8420.0,-228.3
8429.0,-191.61
8439.0,-168.59
8450.0,-152.61
8460.0,-112.97
8469.0,-53.45
8479.0,1.04
8489.0,11.25
8500.0,-22.05
8509.0,-53.64
8519.0,-58.8
8529.0,-58.38
8540.0,-77.55
8549.0,-87.23
8559.0,-58.33
8569.0,-16.33
8580.0,1.93
8590.0,-44.65
8599.0,-134.79
8609.0,-147.37
8620.0,-44.27
8630.0,48.19
8639.0,43.13
8649.0,24.96
8659.0,65.18
8670.0,90.11
8679.0,68.41
8689.0,62.97
8699.0,81.77
8710.0,95.08
8719.0,93.68
8729.0,80.5
8739.0,72.1
8750.0,82.32
8760.0,102.8
8769.0,101.95
8779.0,87.66
8790.0,109.84
8800.0,138.56
8809.0,122.41
8819.0,106.63
8829.0,123.22
8840.0,130.23
8849.0,96.45
8859.0,38.12
8869.0,-10.06
8880.0,-24.51
8890.0,9.39
8899.0,67.72
8909.0,94.75
8920.0,88.18
8930.0,81.2
8939.0,88.41
8949.0,100.74
8960.0,97.3
8970.0,91.15
8979.0,101.3
8989.0,109.5
8999.0,101.09
9010.0,94.21
9019.0,114.18
9029.0,126.97
9039.0,80.9
9050.0,23.34
9060.0,26.67
9069.0,71.87
9079.0,104.67
9090.0,108.83
9100.0,101.6
9109.0,98.71
9119.0,101.08
9129.0,99.09
9140.0,82.57
9149.0,61.88
9159.0,55.93
9169.0,65.91
9180.0,76.98
9189.0,72.66
9199.0,56.71
9209.0,42.96
9220.0,33.27
9230.0,28.04
9239.0,20.77
9249.0,-4.58
9260.0,-33.79
9270.0,-34.1
9279.0,-11.19
9289.0,5.58
9299.0,6.55
9310.0,-8.18
9319.0,-34.33
9329.0,-45.31
9339.0,-24.94
9350.0,-4.66
9359.0,-10.93
9369.0,-24.04
9379.0,-34.55
9390.0,-57.99
9400.0,-77.2
9409.0,-62.51
9419.0,-35.61
9430.0,-30.72
9440.0,-34.13
9449.0,-21.4
9459.0,0.38
9469.0,6.18
9480.0,-15.89
9489.0,-31.45
9499.0,-10.9
9509.0,-15.59
9520.0,-96.1
9530.0,-159.73
9539.0,-117.97
9549.0,-46.29
9560.0,-42.88
9570.0,-70.56
9579.0,-62.44
9589.0,-47.55
9600.0,-51.41
9610.0,-43.32
9619.0,-40.12
9629.0,-64.51
9639.0,-70.93
9650.0,-37.37
9659.0,-5.42
9669.0,-17.61
9679.0,-63.49
9690.0,-80.55
9700.0,-54.1
9709.0,-44.29
9719.0,-64.29
9730.0,-65.68
9740.0,-47.23
9749.0,-46.04
9759.0,-55.48
9769.0,-53.37
9780.0,-46.82
9789.0,-43.67
9799.0,-45.08
9809.0,-48.93
9820.0,-50.19
9829.0,-59.89
9839.0,-80.06
9849.0,-85.29
9860.0,-59.05
9870.0,-20.35
9879.0,-5.1
9889.0,-16.04
9900.0,-26.87
9910.0,-31.79
9919.0,-35.15
9929.0,-20.77
9939.0,9.01
9950.0,11.14
9959.0,-9.34
9969.0,7.12
9979.0,41.43
9990.0,29.3
10000.0,3.58
10009.0,24.66
10019.0,55.86
10030.0,43.18
10040.0,14.14
10049.0,5.85
10059.0,1.08
10070.0,-7.22
10080.0,8.84
10089.0,44.36
10099.0,53.75
10109.0,27.58
10120.0,15.45
10129.0,36.7
10139.0,44.54
10149.0,25.32
10160.0,24.3
10170.0,42.13
10179.0,38.22
10189.0,20.89
10200.0,16.11
10210.0,15.82
10219.0,15.49
10229.0,14.59
10240.0,7.39
10250.0,8.47
10259.0,30.16
10269.0,49.59
10279.0,22.79
10290.0,-66.69
10299.0,-180.54
10309.0,-270.41
10319.0,-316.96
10330.0,-328.38
10340.0,-323.89
10349.0,-300.7
10359.0,-248.68
10370.0,-187.43
10380.0,-139.84
10389.0,-91.57
10399.0,-24.71
10409.0,34.82
10420.0,74.58
10429.0,131.97
10439.0,204.86
10449.0,228.83
10460.0,188.43
10469.0,174.5
10479.0,245.61
10489.0,322.02
10500.0,329.87
10510.0,311.46
10519.0,319.22
10529.0,328.79
10540.0,307.39
10550.0,281.64
10559.0,272.9
10569.0,248.93
10579.0,199.89
10590.0,162.43
10599.0,145.7
10609.0,133.8
10619.0,125.91
10630.0,120.6
10639.0,124.3
10649.0,164.21
10659.0,243.31
10670.0,334.1
10680.0,398.51
10689.0,380.12
10699.0,290.41
10710.0,219.98
10720.0,189.4
10729.0,151.49
10739.0,98.95
10749.0,37.06
10760.0,-45.05
10769.0,-132.07
10779.0,-221.21
10789.0,-316.31
10800.0,-381.78
10810.0,-409.82
10819.0,-420.92
10829.0,-408.69
10840.0,-374.77
10850.0,-341.66
10859.0,-321.19
10869.0,-319.48
10880.0,-323.04
10890.0,-295.05
10899.0,-238.79
10909.0,-205.32
10919.0,-222.78
10930.0,-255.63
10939.0,-258.73
10949.0,-235.67
10959.0,-207.59
10970.0,-180.33
10980.0,-152.82
10989.0,-127.44
10999.0,-116.08
11010.0,-109.39
11020.0,-91.52
11029.0,-74.62
11039.0,-56.41
11049.0,-42.09
11060.0,-57.12
11069.0,-83.54
11079.0,-88.43
11089.0,-66.62
11100.0,-37.73
11109.0,-28.42
11119.0,-32.54
11129.0,-26.76
11140.0,-3.05
11150.0,39.81
11159.0,99.86
11169.0,161.89
11180.0,177.92
11190.0,113.68
11199.0,20.71
11209.0,-28.57
11219.0,-26.75
11230.0,-10.73
11239.0,-5.52
11249.0,-0.25
11259.0,8.15
11270.0,10.74
11279.0,26.14
11289.0,56.68
11299.0,74.5
11310.0,71.95
11320.0,53.13
11329.0,8.74
11339.0,-36.77
11350.0,-8.39
11360.0,77.07
11369.0,106.15
11379.0,75.22
11389.0,62.2
11400.0,72.79
11409.0,75.14
11419.0,69.44
11429.0,78.39
11440.0,97.8
11450.0,97.76
11459.0,81.02
11469.0,62.04
11480.0,51.85
11490.0,61.21
11499.0,79.46
11509.0,102.48
11520.0,121.08
11530.0,118.74
11539.0,111.98
11549.0,116.55
11559.0,119.56
11570.0,96.7
11579.0,56.88
11589.0,39.17
11599.0,34.07
11610.0,26.26
11620.0,40.7
11629.0,56.84
11639.0,40.29
11650.0,11.39
11660.0,1.25
11669.0,11.57
11679.0,23.98
11689.0,43.17
11700.0,67.46
11709.0,52.75
11719.0,4.01
11729.0,-12.33
11740.0,20.13
11749.0,55.38
11759.0,57.35
11769.0,37.88
11780.0,18.45
11790.0,9.95
11799.0,12.13
11809.0,4.41
11820.0,-8.05
11830.0,-4.92
11839.0,-3.86
11849.0,-15.91
11859.0,-26.65
11870.0,-18.24
11879.0,13.29
11889.0,30.76
11899.0,8.93
11910.0,-11.69
11919.0,7.51
11929.0,37.44
11939.0,31.01
11950.0,-1.7
11960.0,-30.51
11969.0,-45.97
11979.0,-39.22
11990.0,-34.43
12000.0,-51.41
12009.0,-50.59
12019.0,-26.45
12029.0,-19.92
12040.0,-40.24
12049.0,-62.21
12059.0,-55.8
12069.0,-24.25
12080.0,4.76
12090.0,11.06
12099.0,-7.39
12109.0,-20.35
12120.0,-16.85
12130.0,-21.87
12139.0,-27.03
12149.0,-18.34
12160.0,-30.22
12170.0,-75.59
12179.0,-85.31
12189.0,-24.4
12199.0,17.09
12210.0,-9.4
12219.0,-36.29
12229.0,-36.6
12239.0,-31.78
12250.0,-28.86
12260.0,-39.67
12269.0,-56.63
12279.0,-54.7
12290.0,-30.58
12300.0,-18.95
12309.0,-38.68
12319.0,-39.68
12329.0,-4.26
12340.0,13.05
12349.0,-6.73
12359.0,-38.73
12369.0,-63.43
12380.0,-69.8
12389.0,-52.47
12399.0,-17.15
12409.0,11.4
12420.0,21.0
12430.0,29.23
12439.0,32.5
12449.0,13.08
12460.0,-17.89
12470.0,-27.37
12479.0,-5.77
12489.0,0.71
12499.0,-39.95
12510.0,-78.45
12519.0,-57.63
12529.0,-5.75
12539.0,12.26
12550.0,-1.11
12559.0,-2.48
12569.0,12.95
12579.0,32.82
12590.0,48.61
12600.0,44.24
12609.0,32.95
12619.0,43.6
12630.0,57.92
12640.0,46.7
12649.0,38.05
12659.0,78.35
12669.0,158.82
12680.0,231.2
12689.0,266.13
12699.0,263.53
12709.0,232.03
12720.0,191.12
12730.0,168.46
12739.0,163.21
12749.0,138.87
12760.0,82.65
12770.0,23.52
12779.0,-17.04
12789.0,-44.95
12800.0,-85.31
12810.0,-137.89
12819.0,-157.55
12829.0,-134.58
12839.0,-113.98
12850.0,-127.45
12859.0,-157.62
12869.0,-158.4
12879.0,-126.64
12890.0,-112.41
12900.0,-131.88
12909.0,-146.59
12919.0,-135.41
12930.0,-117.27
12940.0,-110.23
12949.0,-124.97
12959.0,-152.72
12969.0,-150.95
12980.0,-118.25
12989.0,-99.04
12999.0,-89.68
13009.0,-69.16
13020.0,-70.63
13029.0,-141.86
13039.0,-272.91
13049.0,-377.97
13060.0,-382.08
13070.0,-333.59
13079.0,-302.22
13089.0,-266.0
13100.0,-211.74
13110.0,-166.78
13119.0,-120.0
13129.0,-46.78
13139.0,42.52
13150.0,145.18
13159.0,239.76
13169.0,283.79
13179.0,298.67
13190.0,318.27
13199.0,326.36
13209.0,313.64
13219.0,306.07
13230.0,312.28
13240.0,309.11
13249.0,297.0
13259.0,287.65
13270.0,257.65
13280.0,209.92
13289.0,187.75
13299.0,176.95
13309.0,144.61
13320.0,116.27
13329.0,115.39
13339.0,131.95
13349.0,141.91
13360.0,119.64
13370.0,82.71
13379.0,75.11
13389.0,87.34
13400.0,77.22
13410.0,51.96
13419.0,40.39
13429.0,24.65
13440.0,-5.68
13450.0,-19.87
13459.0,-20.38
13469.0,-28.2
13479.0,-28.64
13490.0,-12.67
13499.0,0.54
13509.0,-10.16
13519.0,-39.04
13530.0,-47.73
13540.0,-27.97
13549.0,-19.93
13559.0,-37.96
13570.0,-47.85
13580.0,-31.12
13589.0,-16.19
13599.0,-20.28
13609.0,-28.2
13620.0,-36.39
13629.0,-40.7
13639.0,-31.59
13649.0,-32.39
13660.0,-52.43
13669.0,-65.56
13679.0,-71.15
13689.0,-74.1
13700.0,-63.72
13710.0,-54.06
13719.0,-60.86
13729.0,-71.9
13740.0,-73.1
13750.0,-62.81
13759.0,-55.67
13769.0,-59.85
13779.0,-54.61
13790.0,-45.1
13799.0,-60.75
13809.0,-82.08
13819.0,-77.44
13830.0,-57.25
13839.0,-42.93
13849.0,-46.93
13859.0,-69.47
13870.0,-87.72
13880.0,-80.27
13889.0,-61.19
13899.0,-49.36
13910.0,-38.63
13920.0,-28.68
13929.0,-27.3
13939.0,-25.66
13949.0,-7.08
13960.0,9.65
13969.0,-33.11
13979.0,-108.88
13989.0,-98.6
14000.0,-5.06
14010.0,35.89
14019.0,-3.97
14029.0,-30.96
14040.0,-24.5
14050.0,-28.16
14059.0,-24.82
14069.0,2.64
14080.0,13.05
14090.0,-0.86
14099.0,-3.2
14109.0,12.78
14119.0,19.77
14130.0,7.03
14139.0,4.26
14149.0,12.04
14159.0,3.58
14170.0,-3.96
14180.0,1.2
14189.0,4.47
14199.0,8.18
14210.0,17.43
14220.0,33.74
14229.0,52.78
14239.0,67.42
14249.0,82.38
14260.0,91.65
14269.0,71.61
14279.0,17.5
14289.0,-37.7
14300.0,-59.86
14309.0,-51.29
14319.0,-40.97
14329.0,-47.07
14340.0,-51.72
14350.0,-40.45
14359.0,-23.52
14369.0,-3.16
14380.0,11.4
14390.0,11.11
14399.0,10.47
14409.0,8.43
14419.0,0.31
14430.0,4.12
14439.0,26.53
14449.0,52.61
14459.0,55.17
14470.0,25.72
14479.0,-2.19
14489.0,-2.02
14499.0,16.9
14510.0,29.61
14520.0,24.64
14529.0,14.27
14539.0,10.16
14550.0,11.6
14560.0,8.2
14569.0,-4.62
14579.0,-8.94
14589.0,1.77
14600.0,7.61
14609.0,-1.59
14619.0,-2.56
14629.0,20.56
14640.0,33.62
14650.0,21.67
14659.0,17.92
14669.0,27.31
14680.0,23.43
14690.0,1.41
14699.0,-11.28
14709.0,4.31
14720.0,32.29
14730.0,41.61
14739.0,12.85
14749.0,-19.42
14759.0,-10.52
14770.0,16.35
14779.0,13.62
14789.0,-32.49
14799.0,-62.63
14810.0,-17.59
14820.0,29.36
14829.0,23.42
14839.0,22.58
14850.0,30.19
14860.0,21.34
14869.0,21.65
14879.0,35.36
14889.0,47.33
14900.0,55.1
14909.0,55.82
14919.0,41.24
14929.0,17.74
14940.0,3.03
14949.0,-9.67
14959.0,-7.96
14969.0,26.33
14980.0,46.96
14990.0,27.28
14999.0,0.47
15009.0,-0.51
15020.0,27.65
15030.0,43.47
15039.0,29.32
15049.0,18.87
15059.0,14.55
15070.0,-7.51
15079.0,-40.88
15089.0,-48.37
15099.0,-25.14
15110.0,-18.3
15119.0,-32.55
15129.0,-37.61
15139.0,-37.48
15150.0,-30.35
15160.0,-15.58
15169.0,-5.8
15179.0,2.29
15190.0,13.69
15200.0,22.22
15209.0,14.1
15219.0,4.42
15229.0,15.16
15240.0,16.04
15249.0,-4.16
15259.0,-17.52
15269.0,-26.9
15280.0,-38.05
15290.0,-30.19
15299.0,-5.37
15309.0,-5.79
15320.0,-28.7
15330.0,-13.66
15339.0,30.87
15349.0,49.43
15360.0,41.42
15370.0,28.71
15379.0,17.44
15389.0,-3.71
15399.0,-32.08
15410.0,-38.77
15419.0,-36.32
15429.0,-43.22
15439.0,-30.83
15450.0,-0.42
15460.0,12.99
15469.0,0.56
15479.0,-5.77
15490.0,12.44
15500.0,10.86
15509.0,-16.53
15519.0,-25.81
15529.0,-25.07
15540.0,-29.81
15549.0,-30.04
15559.0,-22.52
15569.0,-9.04
15580.0,1.21
15589.0,12.48
15599.0,15.72
15609.0,-10.72
15620.0,-22.77
15630.0,0.83
15639.0,16.84
15649.0,34.11
15660.0,47.91
15670.0,-4.41
15679.0,-88.38
15689.0,-79.99
15699.0,14.44
15710.0,53.66
15719.0,17.84
15729.0,-2.04
15739.0,3.32
15750.0,6.32
15759.0,6.03
15769.0,6.71
15779.0,9.54
15790.0,-4.13
15800.0,-25.95
15809.0,-25.2
15819.0,-8.72
15830.0,3.41
15840.0,1.77
15849.0,-3.63
15859.0,-1.7
15869.0,-8.6
15880.0,-16.78
15889.0,-1.15
15899.0,16.62
15909.0,3.58
15920.0,-19.7
15930.0,-1.63
15939.0,40.69
15949.0,40.81
15960.0,4.27
15970.0,-24.14
15979.0,-29.27
15989.0,-16.16
16000.0,-9.65
16010.0,-16.12
16019.0,-8.79
16029.0,11.37
16039.0,11.95
16050.0,-1.65
16059.0,13.5
16069.0,44.24
16079.0,41.17
16090.0,22.67
16100.0,21.01
16109.0,24.5
16119.0,21.87
16130.0,15.33
16140.0,20.0
16149.0,33.52
16159.0,26.84
16169.0,7.32
16180.0,4.67
16189.0,18.31
16199.0,30.35
16209.0,25.57
16220.0,10.25
16229.0,0.28
16239.0,9.62
16249.0,57.17
16260.0,134.06
16270.0,205.71
16279.0,245.07
16289.0,244.89
16300.0,228.92
16310.0,218.32
16319.0,202.96
16329.0,178.44
16339.0,142.14
16350.0,82.05
16359.0,23.97
16369.0,1.03
16379.0,-10.96
16390.0,-53.4
16399.0,-115.52
16409.0,-152.23
16419.0,-158.1
16430.0,-161.16
16440.0,-166.04
16449.0,-160.42
16459.0,-152.0
16470.0,-168.77
16480.0,-206.92
16489.0,-214.73
16499.0,-181.01
16509.0,-160.21
16520.0,-174.19
16529.0,-197.54
16539.0,-211.98
16549.0,-202.67
16560.0,-156.49
16570.0,-93.1
16579.0,-54.64
16589.0,-69.28
16600.0,-129.75
16610.0,-177.63
16619.0,-167.02
16629.0,-160.88
16640.0,-232.31
16650.0,-326.01
16659.0,-357.68
16669.0,-328.6
16679.0,-287.71
16690.0,-255.5
16699.0,-214.28
16709.0,-165.7
16719.0,-127.0
16730.0,-70.99
16740.0,37.41
16749.0,153.21
16759.0,228.48
16770.0,282.47
16780.0,318.76
16789.0,322.27
16799.0,308.02
16809.0,306.12
16820.0,324.63
16829.0,334.22
16839.0,321.24
16849.0,305.27
16860.0,284.38
16869.0,259.05
16879.0,254.33
16889.0,255.97
16900.0,224.08
16910.0,170.75
16919.0,137.0
16929.0,123.96
16940.0,109.39
16950.0,96.11
16959.0,94.85
16969.0,94.03
16979.0,75.47
16990.0,47.84
16999.0,39.02
17009.0,45.66
17019.0,47.68
17030.0,56.77
17039.0,78.89
17049.0,87.89
17059.0,71.82
17070.0,46.06
17080.0,24.4
17089.0,4.83
17099.0,-10.0
17110.0,-9.27
17120.0,-0.57
17129.0,-2.28
17139.0,-19.97
17149.0,-43.17
17160.0,-54.54
17169.0,-47.46
17179.0,-37.41
17189.0,-45.71
17200.0,-69.51
17210.0,-78.02
17219.0,-57.29
17229.0,-39.58
17240.0,-54.78
17250.0,-83.26
17259.0,-90.85
17269.0,-87.92
17280.0,-92.08
17290.0,-83.6
17299.0,-65.18
17309.0,-62.61
17319.0,-64.14
17330.0,-62.41
17339.0,-79.19
17349.0,-92.64
17359.0,-64.99
17370.0,-28.88
17380.0,-26.37
17389.0,-57.4
17399.0,-108.52
17410.0,-124.43
17420.0,-67.26
17429.0,-14.44
17439.0,-32.31
17449.0,-66.99
17460.0,-64.3
17469.0,-48.08
17479.0,-49.29
17489.0,-53.42
17500.0,-40.79
17509.0,-34.49
17519.0,-52.83
17529.0,-60.11
17540.0,-33.86
17550.0,-7.31
17559.0,-5.08
17569.0,-11.97
17580.0,-6.48
17590.0,8.86
17599.0,7.77
17609.0,-7.16
17619.0,-4.87
17630.0,3.2
17639.0,-4.78
17649.0,-14.28
17659.0,-21.2
17670.0,-31.8
17679.0,-36.52
17689.0,-25.54
17699.0,-10.15
17710.0,-16.98
17720.0,-38.68
17729.0,-47.59
17739.0,-50.73
17750.0,-43.01
17760.0,-3.56
17769.0,32.83
17779.0,32.33
17789.0,28.36
17800.0,39.24
17809.0,35.12
17819.0,17.53
17829.0,9.27
17840.0,-5.79
17850.0,-38.5
17859.0,-58.2
17869.0,-39.13
17880.0,3.23
17890.0,26.78
17899.0,16.63
17909.0,-0.42
17920.0,-2.2
17930.0,7.48
17939.0,18.26
17949.0,25.27
17959.0,16.96
17970.0,2.25
17979.0,13.08
17989.0,31.59
17999.0,27.1
18010.0,20.35
18020.0,28.09
18029.0,43.92
18039.0,44.1
18050.0,19.06
18060.0,20.07
18069.0,49.83
18079.0,41.31
18089.0,1.85
18100.0,-8.0
18109.0,9.51
18119.0,3.21
18129.0,-27.06
18140.0,-25.42
18149.0,12.37
18159.0,35.89
18169.0,34.91
18180.0,39.52
18190.0,56.2
18199.0,63.83
18209.0,41.69
18220.0,-6.89
18230.0,-17.87
18239.0,45.93
18249.0,84.0
18259.0,29.35
18270.0,-23.11
18279.0,-5.08
18289.0,32.16
18299.0,32.57
18310.0,12.76
18319.0,11.94
18329.0,22.75
18339.0,29.44
18350.0,28.43
18360.0,15.97
18369.0,6.74
18379.0,-2.73
18390.0,-23.27
18400.0,-28.08
18409.0,-4.63
18419.0,28.67
18429.0,49.53
18440.0,50.79
18449.0,41.66
18459.0,24.4
18469.0,13.76
18480.0,21.72
18490.0,28.5
18499.0,18.43
18509.0,-15.24
18520.0,-53.07
18530.0,-47.62
18539.0,9.44
18549.0,61.7
18560.0,47.34
18570.0,-0.69
18579.0,-8.84
18589.0,10.05
18599.0,24.01
18610.0,30.93
18619.0,23.31
18629.0,-8.9
18639.0,-75.05
18650.0,-111.85
18660.0,-58.11
18669.0,-10.57
18679.0,-36.19
18690.0,-48.83
18700.0,-12.28
18709.0,8.23
18719.0,-15.0
18729.0,-29.05
18740.0,-16.18
18749.0,-20.52
18759.0,-25.98
18769.0,-4.63
18780.0,16.17
18789.0,27.09
18799.0,29.15
18809.0,32.48
18820.0,49.96
18830.0,49.75
18839.0,23.49
18849.0,7.34
18860.0,-7.38
18870.0,-46.49
18879.0,-69.85
18889.0,-45.97
18899.0,-32.42
18910.0,-46.92
18919.0,-16.02
18929.0,47.87
18939.0,61.56
18950.0,26.63
18959.0,-9.5
18969.0,-26.09
18979.0,-20.88
18990.0,16.95
19000.0,93.88
19009.0,174.94
19019.0,219.46
19030.0,210.04
19040.0,163.77
19049.0,132.09
19059.0,129.94
19069.0,126.75
19080.0,114.41
19089.0,85.93
19099.0,22.4
19109.0,-34.29
19120.0,-36.12
19130.0,-36.04
19139.0,-87.79
19149.0,-131.47
19160.0,-131.63
19170.0,-141.32
19179.0,-158.35
19189.0,-154.83
19200.0,-151.55
19210.0,-156.05
19219.0,-163.13
19229.0,-176.82
19239.0,-189.2
19250.0,-178.91
19259.0,-158.22
19269.0,-170.91
19279.0,-191.64
19290.0,-170.08
19300.0,-134.51
19309.0,-118.52
19319.0,-110.9
19330.0,-90.86
19340.0,-60.58
19349.0,-48.75
19359.0,-54.76
19369.0,-50.4
19380.0,-27.65
19389.0,-7.7
19399.0,-12.69
19409.0,-29.6
19420.0,-90.57
19429.0,-221.82
19439.0,-312.98
19449.0,-315.16
19460.0,-288.98
19470.0,-239.81
19479.0,-178.86
19489.0,-138.22
19500.0,-107.05
19510.0,-69.24
19519.0,-18.28
19529.0,49.02
19539.0,126.02
19550.0,210.46
19559.0,280.7
19569.0,315.64
19579.0,335.27
19590.0,364.24
19599.0,392.86
19609.0,388.57
19619.0,359.07
19630.0,337.13
19640.0,329.7
19649.0,329.18
19659.0,312.95
19670.0,271.89
19680.0,228.33
19689.0,199.26
19699.0,191.7
19709.0,197.7
19720.0,192.94
19729.0,166.05
19739.0,133.64
19749.0,123.92
19760.0,128.26
19770.0,120.98
19779.0,114.47
19789.0,111.23
19800.0,90.79
19810.0,65.68
19819.0,58.27
19829.0,57.02
19840.0,40.07
19850.0,9.38
19859.0,-17.17
19869.0,-23.13
19879.0,-3.71
19890.0,8.6
19899.0,-14.58
19909.0,-38.36
19919.0,-39.22
19930.0,-42.68
19940.0,-51.9
19949.0,-51.74
19959.0,-36.56
19970.0,-12.62
19980.0,-28.24
19989.0,-112.96
19999.0,-176.56
20009.0,-125.73
20020.0,-38.62
20029.0,-39.94
20039.0,-93.34
20049.0,-102.54
20060.0,-82.17
20069.0,-81.78
20079.0,-85.73
20089.0,-66.75
20100.0,-35.94
20110.0,1.04
20119.0,49.05
20129.0,65.05
20140.0,12.02
20150.0,-62.63
20159.0,-104.82
20169.0,-125.84
20179.0,-148.36
20190.0,-156.1
20199.0,-133.69
20209.0,-112.83
20219.0,-122.96
20230.0,-141.59
20239.0,-130.81
20249.0,-103.83
20259.0,-103.45
20270.0,-116.78
20280.0,-112.07
20289.0,-103.54
20299.0,-106.17
20310.0,-114.28
20320.0,-120.35
20329.0,-118.55
20339.0,-112.2
20349.0,-101.91
20360.0,-88.09
20369.0,-83.25
20379.0,-78.76
20389.0,-50.76
20400.0,-14.11
20410.0,-3.7
20419.0,-22.98
20429.0,-54.58
20440.0,-78.4
20450.0,-79.36
20459.0,-67.38
20469.0,-55.25
20480.0,-41.36
20490.0,-30.83
20499.0,-25.5
20509.0,-14.41
20519.0,4.34
20530.0,22.68
20539.0,37.11
20549.0,44.0
20559.0,42.04
20570.0,37.94
20580.0,32.26
20589.0,14.95
20599.0,-8.14
20610.0,-11.99
20620.0,3.36
20629.0,10.99
20639.0,3.97
20649.0,-5.3
20660.0,-3.24
20669.0,17.62
20679.0,44.0
20689.0,62.42
20700.0,71.22
20709.0,48.55
20719.0,-4.58
20729.0,-7.03
20740.0,71.52
20750.0,116.08
20759.0,67.63
20769.0,32.14
20780.0,66.16
20790.0,90.12
20799.0,67.91
20809.0,44.32
20819.0,34.51
20830.0,31.67
20839.0,29.58
20849.0,20.67
20859.0,28.69
20870.0,51.29
20879.0,44.79
20889.0,30.27
20899.0,52.04
20910.0,77.93
20920.0,65.79
20929.0,29.13
20939.0,2.42
20950.0,-0.91
20960.0,17.63
20969.0,50.31
20979.0,66.7
20989.0,59.06
21000.0,55.22
21009.0,47.26
21019.0,24.38
21029.0,13.37
21040.0,19.84
21050.0,29.32
21059.0,36.26
21069.0,34.62
21080.0,26.16
21090.0,17.76
21099.0,14.45
21109.0,22.98
21120.0,30.45
21130.0,16.29
21139.0,4.17
21149.0,21.19
21159.0,41.53
21170.0,32.3
21179.0,-1.96
21189.0,-27.44
21199.0,-19.54
21210.0,-4.4
21220.0,-14.59
21229.0,-22.89
21239.0,-1.07
21250.0,24.88
21260.0,32.35
21269.0,29.59
21279.0,25.36
21289.0,18.66
21300.0,16.06
21309.0,42.15
21319.0,105.26
21329.0,134.41
21340.0,48.41
21349.0,-72.17
21359.0,-95.77
21369.0,-67.45
21380.0,-80.88
21390.0,-97.35
21399.0,-73.45
21409.0,-45.41
21420.0,-20.47
21430.0,22.12
21439.0,78.12
21449.0,145.83
21459.0,191.76
21470.0,168.83
21479.0,132.03
21489.0,156.16
21499.0,171.17
21510.0,104.56
21519.0,29.49
21529.0,2.58
21539.0,-10.98
21550.0,-30.13
21560.0,-46.68
21569.0,-61.67
21579.0,-77.5
21590.0,-98.42
21600.0,-129.07
21609.0,-148.04
21619.0,-157.43
21629.0,-195.85
21640.0,-221.46
21649.0,-176.85
21659.0,-134.82
21669.0,-155.82
21680.0,-176.59
21690.0,-145.66
21699.0,-104.48
21709.0,-105.83
21720.0,-125.54
21730.0,-124.25
21739.0,-113.24
21749.0,-106.62
21760.0,-95.9
21770.0,-81.09
21779.0,-89.59
21789.0,-105.95
21799.0,-83.84
21810.0,-59.33
21819.0,-61.0
21829.0,-37.83
21839.0,23.58
21850.0,86.09
21860.0,104.73
21869.0,50.33
21879.0,-14.62
21890.0,-20.08
21900.0,-51.46
21909.0,-207.07
21919.0,-366.71
21929.0,-386.12
21940.0,-355.7
21949.0,-352.78
21959.0,-303.99
21969.0,-222.97
21980.0,-181.37
21989.0,-133.97
21999.0,-24.85
22009.0,84.27
22020.0,148.02
22030.0,203.07
22039.0,258.35
22049.0,301.17
22060.0,333.71
22070.0,362.68
22079.0,411.1
22089.0,461.94
22099.0,449.21
22110.0,380.42
22119.0,318.28
22129.0,292.53
22139.0,294.42
22150.0,281.38
22159.0,250.86
22169.0,235.72
22179.0,222.26
22190.0,196.63
22200.0,181.21
22209.0,185.64
22219.0,176.48
22230.0,143.57
22240.0,130.95
22249.0,123.81
22259.0,90.35
22269.0,64.22
22280.0,44.93
22289.0,18.84
22299.0,9.4
22309.0,8.84
22320.0,-7.01
22330.0,-19.18
22339.0,4.34
22349.0,28.54
22360.0,2.32
22370.0,-41.53
22379.0,-62.69
22389.0,-61.86
22400.0,-46.84
22410.0,-42.23
22419.0,-47.01
22429.0,-46.91
22439.0,-56.47
22450.0,-66.55
22459.0,-70.38
22469.0,-81.55
22479.0,-80.21
22490.0,-51.4
22500.0,-34.11
22509.0,-86.1
22519.0,-164.26
22530.0,-139.55
22540.0,-42.38
22549.0,-23.38
22559.0,-79.64
22569.0,-103.29
22580.0,-68.37
22589.0,-30.17
22599.0,-21.97
22609.0,-14.47
22620.0,49.98
22629.0,139.1
22639.0,86.85
22649.0,-100.86
22660.0,-177.91
22670.0,-89.89
22679.0,-23.96
22689.0,-70.53
22700.0,-152.78
22710.0,-176.1
22719.0,-148.23
22729.0,-144.65
22739.0,-177.92
22750.0,-191.93
22759.0,-151.99
22769.0,-95.78
22779.0,-72.88
22790.0,-72.31
22799.0,-83.31
22809.0,-108.65
22819.0,-140.89
22830.0,-172.15
22840.0,-149.42
22849.0,-65.77
22859.0,-22.24
22870.0,-45.83
22880.0,-58.93
22889.0,-35.09
22899.0,-16.66
22909.0,-26.89
22920.0,-35.64
22929.0,-19.94
22939.0,2.11
22949.0,4.34
22960.0,-5.53
22970.0,6.47
22979.0,24.97
22989.0,16.64
23000.0,6.38
23010.0,1.96
23019.0,-27.71
23029.0,-70.21
23040.0,-74.11
23050.0,-28.9
23059.0,15.51
23069.0,37.03
23079.0,59.39
23090.0,72.12
23099.0,61.2
23109.0,46.45
23119.0,36.26
23130.0,38.44
23140.0,55.96
23149.0,64.5
23159.0,57.05
23170.0,54.33
23180.0,65.38
23189.0,75.05
23199.0,67.06
23209.0,46.36
23220.0,33.35
23229.0,47.88
23239.0,70.9
23249.0,48.38
23260.0,-2.04
23269.0,11.15
23279.0,90.68
23289.0,166.96
23300.0,272.59
23310.0,411.66
23319.0,412.08
23329.0,241.3
23340.0,103.11
23350.0,55.57
23359.0,-7.07
23369.0,-73.91
23379.0,-78.17
23390.0,-50.64
23399.0,-28.15
23409.0,10.35
23419.0,24.79
23430.0,-43.62
23439.0,-104.36
23449.0,-77.37
23459.0,-48.04
23470.0,-60.42
23480.0,-42.34
23489.0,2.83
23499.0,-2.72
23510.0,-35.82
23520.0,-24.21
23529.0,-9.12
23539.0,-46.28
23549.0,-76.49
23560.0,-58.88
23569.0,-43.74
23579.0,-51.76
23589.0,-49.99
23600.0,-34.24
23610.0,-29.33
23619.0,-29.65
23629.0,-16.73
23640.0,-11.9
23650.0,-24.24
23659.0,-17.14
23669.0,3.43
23680.0,-2.99
23690.0,-19.38
23699.0,-11.91
23709.0,4.57
23719.0,-9.82
23730.0,-77.56
23739.0,-174.47
23749.0,-243.88
23759.0,-252.38
23770.0,-219.28
23780.0,-183.85
23789.0,-138.67
23799.0,-46.95
23810.0,68.72
23820.0,141.21
23829.0,150.85
23839.0,143.52
23849.0,160.37
23860.0,181.04
23869.0,166.44
23879.0,129.34
23889.0,111.67
23900.0,118.38
23909.0,118.91
23919.0,117.18
23929.0,199.9
23940.0,364.17
23950.0,370.65
23959.0,101.08
23969.0,-123.82
23980.0,14.1
23990.0,270.49
23999.0,207.17
24009.0,-77.39
24019.0,-210.13
24030.0,-175.94
24039.0,-149.58
24049.0,-200.95
24059.0,-350.57
24070.0,-480.35
24079.0,-419.59
24089.0,-251.43
24099.0,-131.63
24110.0,-49.06
24120.0,18.29
24129.0,60.81
24139.0,96.48
24150.0,104.67
24160.0,69.73
24169.0,69.62
24179.0,145.19
24189.0,208.02
24200.0,197.23
24209.0,151.71
24219.0,105.7
24229.0,70.12
24240.0,66.11
24250.0,80.84
24259.0,71.04
24269.0,41.45
24280.0,30.07
24290.0,36.78
24299.0,36.58
24309.0,31.19
24320.0,35.14
24330.0,42.36
24339.0,40.2
24349.0,23.17
24359.0,-8.19
24370.0,-44.33
24379.0,-57.27
24389.0,-15.1
24399.0,68.57
24410.0,160.02
24420.0,261.53
24429.0,342.63
24439.0,330.59
24450.0,248.38
24460.0,188.67
24469.0,164.58
24479.0,133.86
24489.0,92.51
24500.0,57.69
24509.0,12.14
24519.0,-76.95
24529.0,-189.32
24540.0,-280.88
24549.0,-345.3
24559.0,-383.89
24569.0,-396.13
24580.0,-391.08
24590.0,-378.03
24599.0,-378.95
24609.0,-388.45
24620.0,-351.23
24630.0,-278.73
24639.0,-261.16
24649.0,-301.66
24659.0,-312.3
24670.0,-257.7
24679.0,-174.45
24689.0,-99.29
24699.0,-46.23
24710.0,-19.87
24719.0,-16.85
24729.0,-18.98
24739.0,-4.71
24750.0,34.64
24760.0,93.47
24769.0,123.11
24779.0,81.91
24790.0,74.27
24800.0,178.8
24809.0,155.71
24819.0,-122.19
24829.0,-277.13
24840.0,-127.69
24849.0,-4.07
24859.0,-11.48
24869.0,111.5
24880.0,355.49
24890.0,395.88
24899.0,198.21
24909.0,46.17
24920.0,13.02
24930.0,-34.3
24939.0,-91.82
24949.0,-91.88
24960.0,-65.41
24970.0,-42.58
24979.0,-10.24
24989.0,19.0
24999.0,28.83
25010.0,29.26
25019.0,15.4
25029.0,-34.94
25039.0,-84.17
25050.0,-56.27
25060.0,15.55
25069.0,16.08
25079.0,-47.37
25090.0,-56.85
25100.0,4.3
25109.0,65.64
25119.0,116.2
25129.0,144.22
25140.0,120.26
25149.0,79.29
25159.0,48.41
25169.0,24.73
25180.0,36.09
25189.0,84.71
25199.0,134.33
25209.0,160.97
25220.0,160.45
25230.0,147.38
25239.0,141.17
25249.0,156.07
25260.0,87.58
25270.0,-194.37
25279.0,-433.8
25289.0,-310.79
25299.0,-67.07
25310.0,-6.09
25319.0,7.85
25329.0,96.61
25339.0,142.37
25350.0,95.73
25359.0,79.73
25369.0,203.15
25379.0,391.51
25390.0,438.18
25400.0,300.73
25409.0,171.88
25419.0,87.47
25430.0,-109.13
25440.0,-281.7
25449.0,-166.03
25459.0,58.03
25469.0,89.32
25480.0,28.44
25489.0,59.18
25499.0,124.97
25509.0,150.31
25520.0,147.59
25530.0,133.43
25539.0,127.13
25549.0,117.06
25560.0,89.8
25570.0,61.41
25579.0,14.63
25589.0,-41.05
25600.0,-33.67
25610.0,46.63
25619.0,122.14
25629.0,138.12
25639.0,109.37
25650.0,58.56
25659.0,6.12
25669.0,-5.92
25679.0,6.36
25690.0,-24.19
25700.0,-87.01
25709.0,-111.18
25719.0,-75.52
25730.0,-40.81
25740.0,-49.7
25749.0,-44.85
25759.0,9.28
25769.0,50.35
25780.0,29.52
25789.0,-20.33
25799.0,-44.98
25809.0,-54.3
25820.0,-67.11
25829.0,-70.54
25839.0,-107.87
25849.0,-199.86
25860.0,-242.46
25870.0,-159.96
25879.0,-40.65
25889.0,-19.92
25900.0,-76.95
25910.0,-109.07
25919.0,-93.26
25929.0,-37.28
25939.0,11.43
25950.0,-4.9
25959.0,-36.6
25969.0,-37.71
25979.0,-62.02
25990.0,-129.95
25999.0,-138.76
26009.0,-38.05
26019.0,30.38
26030.0,-14.96
26040.0,-67.58
26049.0,-65.64
26059.0,-48.97
26070.0,-47.66
26080.0,-40.88
26089.0,-11.63
26099.0,-7.7
26109.0,-42.81
26120.0,-70.17
26129.0,-79.33
26139.0,-76.5
26149.0,-73.85
26160.0,-85.64
26170.0,-94.09
26179.0,-77.23
26189.0,-50.07
26200.0,-63.62
26210.0,-99.65
26219.0,-73.49
26229.0,-11.54
26240.0,3.07
26250.0,-16.87
26259.0,-22.14
26269.0,-3.62
26279.0,5.94
26290.0,-3.03
26299.0,5.85
26309.0,27.01
26319.0,27.25
26330.0,-1.44
26340.0,-50.62
26349.0,-77.04
26359.0,-53.97
26370.0,-6.41
26380.0,28.43
26389.0,21.64
26399.0,3.31
26409.0,12.97
26420.0,29.71
26429.0,47.52
26439.0,69.07
26449.0,65.25
26460.0,26.37
26469.0,-20.78
26479.0,-33.81
26489.0,-8.89
26500.0,23.22
26510.0,48.0
26519.0,52.81
26529.0,39.18
26540.0,23.66
26550.0,16.39
26559.0,25.18
26569.0,29.98
26579.0,24.7
26590.0,32.22
26599.0,39.08
26609.0,28.76
26619.0,17.08
26630.0,20.2
26639.0,41.0
26649.0,66.4
26659.0,89.35
26670.0,88.8
26680.0,30.94
26689.0,-34.15
26699.0,-19.46
26710.0,58.44
26720.0,112.35
26729.0,101.75
26739.0,58.96
26749.0,25.44
26760.0,19.46
26769.0,41.45
26779.0,57.69
26789.0,45.08
26800.0,26.15
26810.0,23.23
26819.0,31.81
26829.0,32.29
26840.0,19.49
26850.0,0.9
26859.0,-46.1
26869.0,-128.26
26880.0,-190.62
26890.0,-201.07
26899.0,-186.63
26909.0,-174.46
26919.0,-158.47
26930.0,-125.9
26939.0,-85.45
26949.0,-45.85
26959.0,-18.78
26970.0,-13.28
26980.0,-1.62
26989.0,34.68
26999.0,119.98
27010.0,333.39
27020.0,572.75
27029.0,550.78
27039.0,302.99
27049.0,145.56
27060.0,136.82
27069.0,132.52
27079.0,104.39
27089.0,77.44
27100.0,44.31
27109.0,22.97
27119.0,30.2
27129.0,55.86
27140.0,89.24
27150.0,108.68
27159.0,92.45
27169.0,42.83
27180.0,-5.72
27190.0,-8.89
27199.0,21.84
27209.0,34.51
27219.0,13.17
27230.0,-18.16
27239.0,-35.43
27249.0,-32.06
27259.0,2.33
27270.0,74.08
27279.0,157.99
27289.0,236.37
27299.0,292.37
27310.0,295.57
27320.0,271.88
27329.0,248.47
27339.0,200.53
27350.0,140.63
27360.0,100.43
27369.0,42.07
27379.0,-77.61
27389.0,-193.74
27400.0,-245.49
27409.0,-283.97
27419.0,-347.98
27429.0,-409.99
27440.0,-444.09
27450.0,-444.63
27459.0,-417.64
27469.0,-384.82
27480.0,-363.53
27490.0,-348.71
27499.0,-330.78
27509.0,-309.61
27520.0,-284.55
27530.0,-253.07
27539.0,-220.38
27549.0,-193.16
27559.0,-166.0
27570.0,-140.08
27579.0,-148.68
27589.0,-200.2
27599.0,-218.05
27610.0,-148.05
27620.0,-60.6
27629.0,-39.63
27639.0,-64.29
27650.0,-48.36
27660.0,44.76
27669.0,156.7
27679.0,216.76
27689.0,203.24
27700.0,128.42
27709.0,35.38
27719.0,18.18
27729.0,171.44
27740.0,393.74
27749.0,411.69
27759.0,195.31
27769.0,8.16
27780.0,-41.23
27790.0,-65.95
27799.0,-108.79
27809.0,-121.94
27820.0,-96.78
27830.0,-63.57
27839.0,-54.65
27849.0,-76.21
27859.0,-99.54
27870.0,-105.99
27879.0,-94.11
27889.0,-74.12
27899.0,-78.21
27910.0,-94.72
27919.0,-72.63
27929.0,-24.21
27939.0,-2.26
27950.0,-6.23
27960.0,7.96
27969.0,47.26
27979.0,71.37
27990.0,59.4
28000.0,28.25
28009.0,15.86
28019.0,-11.47
28029.0,-169.06
28040.0,-356.5
28049.0,-304.5
28059.0,-61.84
28069.0,102.76
28080.0,144.11
28090.0,169.84
28099.0,199.58
28109.0,212.68
28120.0,230.29
28130.0,251.78
28139.0,243.66
28149.0,216.68
28160.0,208.71
28170.0,208.91
28179.0,192.7
28189.0,183.46
28199.0,196.06
28210.0,203.81
28219.0,195.31
28229.0,175.97
28239.0,151.3
28250.0,130.0
28260.0,110.87
28269.0,100.48
28279.0,115.98
28290.0,135.03
28300.0,120.4
28309.0,82.18
28319.0,55.26
28329.0,59.2
28340.0,88.07
28349.0,107.59
28359.0,100.1
28369.0,96.29
28380.0,101.06
28389.0,65.94
28399.0,-4.09
28409.0,-33.09
28420.0,3.85
28430.0,43.84
28439.0,40.47
28449.0,33.97
28460.0,56.81
28470.0,61.77
28479.0,22.17
28489.0,-22.2
28499.0,-47.91
28510.0,-67.07
28519.0,-79.68
28529.0,-76.23
28539.0,-67.66
28550.0,-67.54
28559.0,-72.13
28569.0,-83.35
28579.0,-96.37
28590.0,-85.41
28600.0,-39.8
28609.0,2.33
28619.0,-12.81
28630.0,-62.42
28640.0,-81.22
28649.0,-71.87
28659.0,-64.33
28669.0,-60.63
28680.0,-62.44
28689.0,-74.27
28699.0,-91.79
28709.0,-106.09
28720.0,-103.95
28730.0,-83.29
28739.0,-63.61
28749.0,-57.49
28760.0,-74.4
28770.0,-119.75
28779.0,-138.13
28789.0,-86.85
28800.0,-30.31
28810.0,-23.27
28819.0,-40.33
28829.0,-49.65
28839.0,-47.1
28850.0,-46.04
28859.0,-38.81
28869.0,-10.54
28879.0,8.88
28890.0,-9.47
28900.0,-58.43
28909.0,-97.5
28919.0,-84.33
28930.0,-51.8
28940.0,-47.07
28949.0,-57.1
28959.0,-60.15
28969.0,-44.29
28980.0,-16.15
28989.0,-0.16
28999.0,-1.88
29009.0,-19.13
29020.0,-35.35
29029.0,-33.42
29039.0,-39.65
29049.0,-64.86
29060.0,-68.07
29070.0,-47.37
29079.0,-65.35
29089.0,-106.81
29100.0,-78.7
29110.0,-6.59
29119.0,19.32
29129.0,6.18
29139.0,5.37
29150.0,33.58
29159.0,59.08
29169.0,56.45
29179.0,54.08
29190.0,59.06
29199.0,27.32
29209.0,-40.93
29219.0,-37.58
29230.0,106.36
29240.0,266.04
29249.0,305.89
29259.0,259.39
29270.0,213.43
29280.0,184.75
29289.0,144.88
29299.0,102.82
29309.0,84.38
29320.0,77.72
29329.0,67.7
29339.0,44.37
29349.0,-0.2
29360.0,-40.87
29370.0,-57.44
29379.0,-61.34
29389.0,-73.58
29400.0,-111.88
29410.0,-148.96
29419.0,-138.49
29429.0,-84.97
29440.0,-33.1
29450.0,-15.27
29459.0,-23.11
29469.0,-42.01
29479.0,-66.17
29490.0,-76.0
29499.0,-69.21
29509.0,-71.92
29519.0,-96.41
29530.0,-113.46
29540.0,-99.06
29549.0,-87.78
29559.0,-90.84
29570.0,-91.03
29580.0,-108.87
29589.0,-119.22
29599.0,-86.51
29609.0,-52.44
29620.0,-35.22
29629.0,-25.32
29639.0,-23.14
29649.0,-15.62
29660.0,-11.33
29669.0,-16.87
29679.0,-8.14
29689.0,26.23
29700.0,56.1
29710.0,35.92
29719.0,-56.01
29729.0,-214.75
29740.0,-352.02
29750.0,-370.56
29759.0,-339.64
29769.0,-328.45
29779.0,-282.93
29790.0,-209.41
29799.0,-162.9
29809.0,-130.67
29819.0,-84.84
29830.0,-2.86
29839.0,136.88
29849.0,272.14
29859.0,327.32
29870.0,339.13
29880.0,368.54
29889.0,403.38
29899.0,401.59
29910.0,357.91
29920.0,311.2
29929.0,304.16
29939.0,322.77
29949.0,324.3
29960.0,302.42
29969.0,268.44
29979.0,238.79
29989.0,216.4
30000.0,189.69
30010.0,169.17
30019.0,123.16
30029.0,19.69
30040.0,-48.36
30050.0,-2.67
30059.0,96.8
30069.0,156.96
30080.0,139.68
30090.0,76.45
30099.0,36.82
30109.0,66.18
30119.0,123.59
30130.0,121.4
30139.0,73.13
30149.0,56.36
30159.0,54.91
30170.0,22.12
30180.0,-10.41
30189.0,1.08
30199.0,22.35
30210.0,1.9
30220.0,-23.22
30229.0,-12.88
30239.0,-8.65
30249.0,-19.36
30260.0,26.9
30269.0,151.4
30279.0,246.84
30289.0,225.9
30300.0,136.57
30309.0,44.67
30319.0,-34.72
30329.0,-103.51
30340.0,-155.62
30350.0,-172.34
30359.0,-183.96
30369.0,-233.11
30380.0,-280.11
30390.0,-273.78
30399.0,-235.03
30409.0,-212.78
30419.0,-216.02
30430.0,-213.79
30439.0,-191.45
30449.0,-170.37
30459.0,-170.0
30470.0,-173.64
30479.0,-144.13
30489.0,-89.19
30499.0,-64.27
30510.0,-80.69
30520.0,-99.25
30529.0,-106.8
30539.0,-105.91
30550.0,-88.07
30560.0,-76.56
30569.0,-94.45
30579.0,-99.28
30589.0,-76.15
30600.0,-77.67
30609.0,-100.35
30619.0,-90.5
30629.0,-45.45
30640.0,-19.18
30650.0,-35.57
30659.0,-37.78
30669.0,-14.04
30680.0,-23.51
30690.0,-40.41
30699.0,-20.17
30709.0,-12.92
30720.0,-45.31
30730.0,-77.66
30739.0,-84.78
30749.0,-61.13
30759.0,-17.16
30770.0,13.04
30779.0,18.33
30789.0,20.35
30799.0,24.37
30810.0,24.61
30820.0,42.97
30829.0,85.71
30839.0,88.64
30850.0,9.58
30860.0,-60.21
30869.0,-25.88
30879.0,30.61
30889.0,6.39
30900.0,-28.64
30909.0,11.86
30919.0,83.71
30929.0,103.08
30940.0,53.14
30949.0,-2.91
30959.0,-7.54
30969.0,27.79
30980.0,60.9
30990.0,64.61
30999.0,55.97
31009.0,68.71
31020.0,82.99
31030.0,59.14
31039.0,18.07
31049.0,15.73
31059.0,53.78
31070.0,67.74
31079.0,25.71
31089.0,-8.79
31099.0,18.22
31110.0,64.2
31119.0,76.83
31129.0,61.1
31139.0,36.69
31150.0,9.41
31160.0,-10.62
31169.0,-5.98
31179.0,16.76
31190.0,32.2
31200.0,39.74
31209.0,47.86
31219.0,51.7
31229.0,54.07
31240.0,54.88
31249.0,45.19
31259.0,24.79
31269.0,2.54
31280.0,-9.45
31290.0,-5.77
31299.0,6.71
31309.0,17.22
31320.0,20.87
31330.0,14.65
31339.0,2.67
31349.0,-53.67
31360.0,-230.55
31370.0,-418.62
31379.0,-409.17
31389.0,-276.1
31399.0,-221.57
31410.0,-217.49
31419.0,-135.54
31429.0,27.47
31439.0,200.62
31450.0,308.11
31460.0,261.23
31469.0,76.85
31479.0,-43.04
31490.0,24.24
31500.0,168.85
31509.0,316.12
31519.0,405.27
31529.0,264.3
31540.0,29.66
31549.0,75.15
31559.0,311.08
31569.0,360.72
31580.0,216.61
31589.0,109.82
31599.0,98.46
31609.0,99.92
31620.0,78.55
31630.0,62.88
31639.0,34.68
31649.0,-98.48
31660.0,-277.54
31670.0,-262.99
31679.0,-76.33
31689.0,45.75
31699.0,114.09
31710.0,213.22
31719.0,280.88
31729.0,255.57
31739.0,154.55
31750.0,132.16
31759.0,263.5
31769.0,349.71
31779.0,295.8
31790.0,234.42
31800.0,196.97
31809.0,128.95
31819.0,50.87
31830.0,-23.05
31840.0,-91.35
31849.0,-85.71
31859.0,-57.57
31869.0,-187.4
31880.0,-371.9
31889.0,-346.38
31899.0,-175.43
31909.0,-98.43
31920.0,-182.73
31930.0,-329.24
31939.0,-401.52
31949.0,-352.6
31960.0,-254.88
31970.0,-197.02
31979.0,-195.38
31989.0,-214.69
32000.0,-219.76
32010.0,-196.69
32019.0,-177.14
32029.0,-197.76
32039.0,-230.62
32050.0,-249.6
32059.0,-278.5
32069.0,-318.61
32079.0,-321.42
32090.0,-253.48
32100.0,-162.06
32109.0,-114.53
32119.0,-100.01
32130.0,-78.67
32140.0,-53.31
32149.0,-35.64
32159.0,-25.57
32169.0,-31.8
32180.0,-47.69
32189.0,-48.38
32199.0,-38.9
32209.0,-28.59
32220.0,-4.51
32229.0,11.75
32239.0,-16.89
32249.0,-83.8
32260.0,-160.83
32270.0,-213.63
32279.0,-214.4
32289.0,-181.87
32300.0,-172.39
32310.0,-201.62
32319.0,-204.98
32329.0,-151.06
32339.0,-85.66
32350.0,-25.46
32359.0,64.73
32369.0,205.81
32379.0,328.39
32390.0,371.81
32399.0,393.14
32409.0,413.85
32419.0,389.59
32430.0,348.0
32440.0,351.41
32449.0,372.15
32459.0,341.98
32470.0,288.09
32480.0,269.83
32489.0,282.23
32499.0,298.85
32509.0,275.44
32520.0,205.85
32529.0,173.3
32539.0,176.28
32549.0,110.36
32560.0,10.75
32570.0,18.73
32579.0,113.55
32589.0,192.81
32600.0,296.32
32610.0,407.9
32619.0,378.11
32629.0,237.75
32640.0,125.27
32650.0,56.71
32659.0,25.16
32669.0,27.59
32679.0,25.25
32690.0,8.77
32699.0,3.07
32709.0,10.57
32719.0,-1.78
32730.0,-25.69
32740.0,-12.82
32749.0,3.03
32759.0,-39.46
32770.0,-88.8
32780.0,-75.94
32789.0,-46.78
32799.0,-58.99
32809.0,-81.88
32820.0,-90.99
32829.0,-86.5
32839.0,-53.29
32849.0,-41.9
32860.0,-92.67
32869.0,-131.0
32879.0,-117.57
32889.0,-103.89
32900.0,-120.04
32910.0,-135.24
32919.0,-129.6
32929.0,-144.61
32940.0,-180.64
32950.0,-175.26
32959.0,-128.77
32969.0,-95.95
32979.0,-93.09
32990.0,-81.66
32999.0,-44.93
33009.0,-26.88
33019.0,-49.87
33030.0,-81.15
33039.0,-83.74
33049.0,-63.62
33059.0,-55.92
33070.0,-51.62
33080.0,-43.52
33089.0,-58.5
33099.0,-73.72
33110.0,-68.04
33120.0,-59.45
33129.0,-44.07
33139.0,-26.87
33149.0,-18.19
33160.0,-6.46
33169.0,6.77
33179.0,8.46
33189.0,-0.74
33200.0,-6.37
33210.0,-22.19
33219.0,-63.14
33229.0,-79.61
33240.0,-56.36
33250.0,-54.33
33259.0,-74.91
33269.0,-57.83
33280.0,0.13
33290.0,25.58
33299.0,-7.71
33309.0,-26.68
33319.0,-2.65
33330.0,11.52
33339.0,-8.39
33349.0,-25.54
33359.0,1.65
33370.0,38.23
33380.0,27.9
33389.0,-5.72
33399.0,-19.65
33410.0,-11.12
33420.0,-15.67
33429.0,-48.02
33439.0,-53.24
33449.0,-14.61
33460.0,22.33
33469.0,33.92
33479.0,22.46
33489.0,11.53
33500.0,10.2
33509.0,10.33
33519.0,29.91
33529.0,50.21
33540.0,32.99
33550.0,-7.05
33559.0,-54.25
33569.0,-73.75
33580.0,-20.93
33590.0,53.99
33599.0,66.71
33609.0,30.14
33619.0,23.51
33630.0,50.86
33639.0,52.03
33649.0,41.42
33659.0,62.0
33670.0,91.94
33679.0,96.17
33689.0,74.6
33699.0,58.56
33710.0,61.89
33720.0,48.28
33729.0,-9.31
33739.0,-59.46
33750.0,-34.34
33760.0,19.23
33769.0,20.68
33779.0,3.42
33789.0,20.69
33800.0,58.86
33809.0,87.86
33819.0,84.96
33829.0,53.7
33840.0,22.64
33850.0,6.84
33859.0,-8.93
33869.0,-36.51
33880.0,-43.3
33890.0,-22.31
33899.0,-18.12
33909.0,-18.89
33920.0,6.64
33930.0,32.63
33939.0,41.6
33949.0,44.73
33959.0,48.06
33970.0,51.11
33979.0,49.34
33989.0,41.25
33999.0,31.05
34010.0,19.77
34020.0,1.74
34029.0,-12.55
34039.0,-8.52
34050.0,-7.38
34060.0,-10.0
34069.0,26.2
34079.0,99.12
34089.0,177.91
34100.0,245.71
34109.0,279.41
34119.0,277.19
34129.0,254.5
34140.0,218.65
34149.0,179.47
34159.0,140.27
34169.0,99.85
34180.0,55.66
34190.0,10.94
34199.0,-16.19
34209.0,-25.55
34220.0,-44.32
34230.0,-81.32
34239.0,-117.92
34249.0,-146.72
34259.0,-177.23
34270.0,-208.09
34279.0,-221.51
34289.0,-220.38
34299.0,-232.31
34310.0,-248.69
34319.0,-235.37
34329.0,-197.87
34339.0,-164.14
34350.0,-155.5
34360.0,-186.05
34369.0,-229.64
34379.0,-224.97
34390.0,-171.3
34400.0,-136.5
34409.0,-128.35
34419.0,-95.16
34429.0,-51.63
34440.0,-59.47
34449.0,-123.25
34459.0,-190.61
34469.0,-231.85
34480.0,-284.96
34490.0,-364.93
34499.0,-385.79
34509.0,-320.05
34520.0,-256.39
34530.0,-224.37
34539.0,-186.28
34549.0,-138.74
34560.0,-74.9
34570.0,30.16
34579.0,141.5
34589.0,218.61
34599.0,274.23
34610.0,320.01
34619.0,368.47
34629.0,407.01
34639.0,386.6
34650.0,321.22
34660.0,281.44
34669.0,270.38
34679.0,245.89
34690.0,215.58
34700.0,190.54
34709.0,161.05
34719.0,151.58
34729.0,172.89
34740.0,184.24
34749.0,172.57
34759.0,170.98
34769.0,191.97
34780.0,207.82
34789.0,188.98
34799.0,145.39
34809.0,115.08
34820.0,111.38
34830.0,109.4
34839.0,90.08
34849.0,57.87
34860.0,18.38
34870.0,-4.73
34879.0,11.51
34889.0,34.2
34899.0,28.31
34910.0,19.7
34919.0,47.01
34929.0,100.45
34939.0,120.73
34950.0,68.12
34959.0,-14.13
34969.0,-50.98
34979.0,-40.04
34990.0,-45.06
35000.0,-78.12
35009.0,-88.92
35019.0,-74.31
35030.0,-69.24
35040.0,-76.19
35049.0,-89.66
35059.0,-105.52
35069.0,-102.21
35080.0,-72.84
35089.0,-41.89
35099.0,-39.64
35109.0,-66.18
35120.0,-79.67
35130.0,-55.21
35139.0,-27.54
35149.0,-29.17
35160.0,-39.92
35170.0,-33.48
35179.0,-18.71
35189.0,-18.64
35200.0,-48.38
35210.0,-108.29
35219.0,-160.95
35229.0,-155.76
35239.0,-111.74
35250.0,-86.39
35259.0,-83.57
35269.0,-85.56
35279.0,-82.61
35290.0,-54.19
35300.0,-19.85
35309.0,-17.23
35319.0,-28.32
35330.0,-30.67
35340.0,-23.23
35349.0,-10.71
35359.0,-15.99
35369.0,-34.36
35380.0,-42.33
35389.0,-55.7
35399.0,-74.56
35409.0,-61.68
35420.0,-29.41
35429.0,-34.64
35439.0,-70.73
35449.0,-74.35
35460.0,-38.63
35470.0,-15.61
35479.0,-14.1
35489.0,6.93
35500.0,38.49
35510.0,29.16
35519.0,-12.21
35529.0,-40.42
35539.0,-53.14
35550.0,-74.62
35559.0,-91.91
35569.0,-60.41
35579.0,-1.25
35590.0,17.03
35599.0,-1.94
35609.0,-5.98
35619.0,14.88
35630.0,30.01
35640.0,29.22
35649.0,40.56
35659.0,60.54
35670.0,57.93
35680.0,45.45
35689.0,42.37
35699.0,34.91
35709.0,13.17
35720.0,-9.23
35729.0,-12.99
35739.0,-0.71
35749.0,9.88
35760.0,7.13
35770.0,5.71
35779.0,33.75
35789.0,60.47
35800.0,32.2
35810.0,-13.57
35819.0,-10.44
35829.0,23.04
35840.0,35.9
35850.0,32.74
35859.0,34.52
35869.0,39.91
35879.0,53.31
35890.0,66.46
35899.0,57.08
35909.0,33.4
35919.0,22.76
35930.0,27.4
35940.0,29.05
35949.0,35.87
35959.0,58.17
35970.0,69.06
35980.0,58.37
35989.0,37.75
35999.0,2.2
36009.0,-24.83
36020.0,-15.52
36029.0,-6.59
36039.0,-30.64
36049.0,-48.68
36060.0,-33.34
36069.0,-27.97
36079.0,-36.18
36089.0,-2.2
36100.0,40.2
36110.0,-1.04
36119.0,-89.68
36129.0,-82.94
36140.0,21.24
36150.0,49.72
36159.0,-40.01
36169.0,-96.49
36179.0,-54.81
36190.0,-8.47
36199.0,-15.48
36209.0,-12.52
36219.0,24.68
36230.0,23.75
36239.0,-14.4
36249.0,-20.11
36259.0,15.55
36270.0,49.37
36280.0,48.5
36289.0,36.32
36299.0,44.39
36310.0,68.05
36320.0,174.48
36329.0,384.06
36339.0,451.89
36349.0,265.76
36360.0,102.62
36369.0,92.37
36379.0,60.27
36389.0,-51.54
36400.0,-139.84
36410.0,-197.62
36419.0,-292.82
36429.0,-390.83
36440.0,-409.41
36450.0,-367.99
36459.0,-343.97
36469.0,-329.34
36480.0,-273.61
36490.0,-206.62
36499.0,-169.31
36509.0,-142.08
36519.0,-102.99
36530.0,-51.83
36539.0,13.41
36549.0,80.29
36559.0,111.91
36570.0,105.12
36580.0,107.67
36589.0,135.63
36599.0,157.56
36610.0,164.4
36620.0,166.86
36629.0,169.54
36639.0,175.26
36649.0,186.8
36660.0,198.42
36669.0,185.3
36679.0,155.1
36689.0,143.37
36700.0,148.13
36709.0,144.86
36719.0,120.8
36729.0,106.09
36740.0,126.46
36750.0,140.65
36759.0,125.41
36769.0,101.12
36780.0,76.82
36790.0,70.25
36799.0,97.0
36809.0,129.72
36819.0,110.25
36830.0,42.38
36839.0,6.13
36849.0,12.16
36859.0,34.28
36870.0,109.12
36879.0,223.64
36889.0,293.57
36899.0,287.85
36910.0,257.95
36920.0,236.62
36929.0,198.4
36939.0,146.63
36950.0,108.63
36960.0,79.82
36969.0,47.13
36979.0,-13.57
36989.0,-118.76
37000.0,-216.21
37009.0,-271.39
37019.0,-314.68
37029.0,-358.63
37040.0,-376.91
37050.0,-347.57
37059.0,-311.62
37069.0,-309.41
37080.0,-319.95
37090.0,-325.76
37099.0,-316.83
37109.0,-299.43
37120.0,-303.94
37130.0,-315.48
37139.0,-294.54
37149.0,-240.11
37159.0,-196.4
37170.0,-201.34
37179.0,-207.87
37189.0,-166.06
37199.0,-117.37
37210.0,-101.02
37220.0,-97.69
37229.0,-86.16
37239.0,-79.84
37250.0,-82.54
37260.0,-71.54
37269.0,-52.07
37279.0,-33.89
37289.0,-18.4
37300.0,-24.56
37309.0,-40.46
37319.0,-49.84
37329.0,-43.12
37340.0,-0.41
37349.0,38.12
37359.0,50.22
37369.0,76.48
37380.0,103.42
37390.0,98.42
37399.0,84.84
37409.0,98.25
37420.0,112.08
37430.0,77.06
37439.0,29.52
37449.0,22.82
37459.0,55.66
37470.0,108.02
37479.0,120.59
37489.0,78.0
37499.0,64.17
37510.0,107.03
37519.0,140.36
37529.0,124.6
37539.0,93.94
37550.0,99.32
37560.0,136.95
37569.0,164.05
37579.0,160.42
37590.0,138.41
37600.0,109.21
37609.0,72.75
37619.0,45.89
37629.0,52.2
37640.0,81.02
37649.0,107.61
37659.0,120.73
37669.0,118.53
37680.0,108.45
37690.0,98.43
37699.0,92.96
37709.0,87.7
37720.0,68.83
37730.0,34.42
37739.0,-2.97
37749.0,-6.39
37760.0,55.11
37770.0,128.17
37779.0,141.07
37789.0,111.33
37799.0,84.3
37810.0,61.13
37819.0,37.7
37829.0,35.51
37839.0,54.4
37850.0,61.02
37860.0,47.7
37869.0,33.82
37879.0,30.89
37890.0,28.79
37900.0,2.79
37909.0,-32.64
37919.0,-27.93
37929.0,4.58
37940.0,12.01
37949.0,6.7
37959.0,14.98
37969.0,6.15
37980.0,-29.02
37989.0,-47.6
37999.0,-38.26
38009.0,-25.73
38020.0,-15.46
38030.0,-14.87
38039.0,-41.93
38049.0,-70.61
38060.0,-66.77
38070.0,-61.63
38079.0,-75.59
38089.0,-57.29
38099.0,5.14
38110.0,35.76
38119.0,4.31
38129.0,-30.26
38139.0,-38.08
38150.0,-38.92
38159.0,-39.42
38169.0,-38.8
38179.0,-40.51
38190.0,-44.85
38200.0,-46.48
38209.0,-42.14
38219.0,-45.67
38230.0,-70.37
38240.0,-98.01
38249.0,-95.72
38259.0,-62.0
38269.0,-27.41
38280.0,-23.05
38289.0,-55.82
38299.0,-113.47
38309.0,-198.84
38320.0,-292.21
38330.0,-324.77
38339.0,-286.55
38349.0,-252.72
38360.0,-257.44
38370.0,-245.75
38379.0,-185.01
38389.0,-128.3
38400.0,-108.3
38410.0,-81.79
38419.0,-16.58
38429.0,51.79
38439.0,82.18
38450.0,97.94
38459.0,131.32
38469.0,152.55
38479.0,145.18
38490.0,149.32
38500.0,171.81
38509.0,190.7
38519.0,204.06
38530.0,204.75
38540.0,191.96
38549.0,189.72
38559.0,212.11
38569.0,248.33
38580.0,268.12
38589.0,219.51
38599.0,109.01
38609.0,59.93
38620.0,126.46
38629.0,181.76
38639.0,140.95
38649.0,77.75
38660.0,63.06
38670.0,81.57
38679.0,97.46
38689.0,101.32
38700.0,97.87
38710.0,83.44
38719.0,55.71
38729.0,25.27
38739.0,2.71
38750.0,-9.38
38759.0,-19.06
38769.0,-36.95
38779.0,-50.84
38790.0,-46.4
38799.0,-43.33
38809.0,-44.7
38819.0,-10.78
38830.0,54.68
38840.0,126.89
38849.0,229.3
38859.0,320.57
38870.0,305.41
38880.0,217.13
38889.0,157.76
38899.0,133.27
38909.0,98.68
38920.0,52.77
38929.0,16.16
38939.0,-16.85
38949.0,-84.06
38960.0,-206.24
38970.0,-330.67
38979.0,-408.42
38989.0,-457.19
39000.0,-474.54
39010.0,-448.4
39019.0,-418.26
39029.0,-405.33
39040.0,-378.01
39050.0,-326.93
39059.0,-299.68
39069.0,-306.66
39079.0,-281.31
39090.0,-218.6
39099.0,-193.81
39109.0,-220.45
39119.0,-243.43
39130.0,-224.2
39140.0,-177.5
39149.0,-144.06
39159.0,-132.14
39170.0,-118.73
39180.0,-87.49
39189.0,-36.0
39199.0,25.36
39209.0,61.17
39220.0,40.29
39229.0,-5.04
39239.0,-16.44
39249.0,1.32
39260.0,12.16
39269.0,16.05
39279.0,20.67
39289.0,24.86
39300.0,44.59
39310.0,84.68
39319.0,102.48
39329.0,68.15
39340.0,24.75
39350.0,18.89
39359.0,41.43
39369.0,59.96
39379.0,67.5
39390.0,84.37
39399.0,96.96
39409.0,60.74
39419.0,-6.38
39430.0,-20.74
39439.0,50.59
39449.0,133.81
39459.0,159.96
39470.0,141.24
39480.0,114.54
39489.0,116.84
39499.0,149.54
39510.0,149.32
39520.0,103.26
39529.0,77.71
39539.0,83.35
39549.0,79.31
39560.0,65.29
39569.0,52.13
39579.0,51.9
39589.0,85.37
39600.0,118.57
39610.0,114.59
39619.0,110.46
39629.0,118.66
39640.0,107.35
39650.0,105.48
39659.0,145.21
39669.0,173.12
39680.0,143.11
39690.0,105.89
39699.0,102.07
39709.0,95.35
39719.0,77.23
39730.0,61.09
39739.0,35.15
39749.0,9.32
39759.0,-13.58
39770.0,-33.16
39780.0,-18.54
39789.0,22.47
39799.0,50.9
39810.0,59.24
39820.0,60.32
39829.0,58.2
39839.0,50.64
39849.0,50.15
39860.0,42.09
39869.0,3.84
39879.0,-23.32
39889.0,-13.28
39900.0,1.12
39909.0,-4.54
39919.0,-19.31
39929.0,-25.9
39940.0,-103.71
39950.0,-309.8
39959.0,-412.78
39969.0,-229.5
39980.0,-7.63
39990.0,12.48
39999.0,-58.58
40009.0,-47.54
40019.0,34.58
40030.0,91.28
40039.0,105.86
40049.0,113.69
40059.0,124.26
40070.0,127.95
40079.0,136.5
40089.0,155.44
40099.0,145.85
40110.0,115.58
40120.0,113.47
40129.0,117.6
40139.0,68.72
40150.0,-25.2
40160.0,-68.69
40169.0,-12.6
40179.0,63.2
40189.0,76.66
40200.0,35.63
40209.0,11.89
40219.0,46.2
40229.0,73.85
40240.0,48.55
40250.0,18.1
40259.0,15.46
40269.0,21.25
40280.0,13.58
40290.0,-0.98
40299.0,-9.28
40309.0,-17.75
40320.0,-33.95
40330.0,-58.76
40339.0,-76.92
40349.0,-79.67
40359.0,-84.63
40370.0,-86.36
40379.0,-85.23
40389.0,-93.02
40399.0,-79.37
40410.0,-60.31
40420.0,-89.74
40429.0,-128.17
40439.0,-132.91
40450.0,-163.15
40460.0,-257.87
40469.0,-328.42
40479.0,-305.29
40489.0,-256.09
40500.0,-194.08
40509.0,-51.88
40519.0,86.36
40529.0,74.03
40540.0,-35.75
40549.0,-71.15
40559.0,-17.35
40569.0,-0.23
40580.0,-35.82
40590.0,-38.26
40599.0,0.38
40609.0,11.71
40620.0,-47.51
40630.0,-136.31
40639.0,-196.45
40649.0,-226.54
40659.0,-223.58
40670.0,-186.86
40679.0,-143.5
40689.0,-100.22
40699.0,-60.0
40710.0,-33.65
40719.0,-9.59
40729.0,23.86
40739.0,45.01
40750.0,42.04
40760.0,59.31
40769.0,105.79
40779.0,128.99
40790.0,141.2
40800.0,171.33
40809.0,181.54
40819.0,168.65
40829.0,162.33
40840.0,170.74
40849.0,198.25
40859.0,219.69
40869.0,212.42
40880.0,193.66
40890.0,173.49
40899.0,142.92
40909.0,116.62
40920.0,127.11
40930.0,147.58
40939.0,135.69
40949.0,118.4
40960.0,106.63
40970.0,82.62
40979.0,65.46
40989.0,66.12
40999.0,66.67
41010.0,55.31
41019.0,46.78
41029.0,31.31
41039.0,-28.13
41050.0,-66.76
41060.0,-14.1
41069.0,33.65
41079.0,0.1
41090.0,-31.65
41100.0,8.25
41109.0,54.81
41119.0,27.37
41129.0,-26.4
41140.0,-37.98
41149.0,-34.23
41159.0,-38.73
41169.0,-47.7
41180.0,-71.17
41189.0,-92.93
41199.0,-89.5
41209.0,-73.11
41220.0,-52.39
41230.0,-4.46
41239.0,76.93
41249.0,156.26
41260.0,206.07
41270.0,234.94
41279.0,254.28
41289.0,252.39
41299.0,229.93
41310.0,212.36
41319.0,205.94
41329.0,179.13
41339.0,115.46
41350.0,39.24
41359.0,-36.16
41369.0,-104.23
41379.0,-164.11
41390.0,-230.24
41400.0,-304.81
41409.0,-381.66
41419.0,-438.07
41430.0,-453.66
41440.0,-439.37
41449.0,-411.96
41459.0,-385.09
41469.0,-368.39
41480.0,-345.63
41489.0,-303.43
41499.0,-264.18
41509.0,-234.55
41520.0,-199.13
41530.0,-167.3
41539.0,-145.31
41549.0,-117.27
41560.0,-79.26
41570.0,-52.38
41579.0,-62.53
41589.0,-93.43
41600.0,-82.71
41610.0,-24.39
41619.0,7.43
41629.0,-6.49
41639.0,-10.1
41650.0,13.98
41659.0,23.84
41669.0,7.57
41679.0,5.37
41690.0,30.89
41700.0,64.05
41709.0,94.89
41719.0,112.89
41730.0,114.31
41740.0,108.95
41749.0,96.91
41759.0,80.41
41769.0,72.05
41780.0,80.27
41789.0,95.91
41799.0,102.9
41809.0,104.96
41820.0,108.28
41829.0,109.68
41839.0,97.07
41849.0,61.55
41860.0,36.54
41870.0,49.48
41879.0,64.7
41889.0,55.64
41900.0,35.95
41910.0,21.8
41919.0,50.78
41929.0,122.83
41939.0,154.11
41950.0,130.17
41959.0,152.73
41969.0,233.37
41979.0,262.28
41990.0,216.64
41999.0,166.25
42009.0,132.31
42019.0,107.44
42030.0,94.71
42040.0,80.84
42049.0,66.0
42059.0,72.76
42070.0,88.79
42080.0,73.04
42089.0,30.79
42099.0,5.77
42109.0,10.72
42120.0,31.95
42129.0,51.0
42139.0,51.84
42149.0,41.59
42160.0,34.16
42170.0,32.73
42179.0,32.29
42189.0,22.99
42200.0,12.98
42210.0,13.16
42219.0,1.07
42229.0,-32.52
42240.0,-54.72
42250.0,-51.24
42259.0,-47.1
42269.0,-52.7
42279.0,-34.46
42290.0,18.2
42299.0,48.01
42309.0,31.6
42319.0,17.35
42330.0,11.78
42340.0,-20.67
42349.0,-60.84
42359.0,-61.76
42370.0,-35.36
42380.0,-29.44
42389.0,-46.11
42399.0,-53.35
42409.0,-43.29
42420.0,-35.63
42429.0,-46.69
42439.0,-63.18
42449.0,-55.48
42460.0,-22.54
42469.0,-2.64
42479.0,-18.49
42489.0,-41.89
42500.0,-43.96
42510.0,-40.05
42519.0,-65.52
42529.0,-119.51
42540.0,-138.37
42550.0,-90.01
42559.0,-42.05
42569.0,-32.1
42579.0,3.42
42590.0,101.37
42599.0,207.52
42609.0,266.73
42619.0,291.01
42630.0,302.1
42639.0,273.2
42649.0,196.73
42659.0,104.89
42670.0,12.81
42680.0,-46.46
42689.0,-51.37
42699.0,-62.11
42710.0,-119.59
42720.0,-175.23
42729.0,-176.79
42739.0,-140.68
42749.0,-126.37
42760.0,-147.31
42769.0,-163.64
42779.0,-172.23
42789.0,-186.83
42800.0,-190.82
42810.0,-191.12
42819.0,-206.14
42829.0,-206.16
42840.0,-171.19
42850.0,-154.52
42859.0,-180.14
42869.0,-177.08
42880.0,-129.77
42890.0,-105.55
42899.0,-115.84
42909.0,-125.21
42919.0,-119.89
42930.0,-105.2
42939.0,-87.22
42949.0,-67.9
42959.0,-57.57
42970.0,-67.15
42980.0,-89.95
42989.0,-97.95
42999.0,-71.78
43010.0,-39.35
43020.0,-27.1
43029.0,-25.4
43039.0,-50.05
43049.0,-107.57
43060.0,-146.2
43069.0,-178.62
43079.0,-258.19
43089.0,-318.03
43100.0,-295.14
43109.0,-238.43
43119.0,-187.27
43129.0,-126.19
43140.0,-37.95
43150.0,62.4
43159.0,163.32
43169.0,264.29
43180.0,336.07
43190.0,350.26
43199.0,340.74
43209.0,359.59
43219.0,391.63
43230.0,395.59
43239.0,379.96
43249.0,371.77
43259.0,357.31
43270.0,326.86
43279.0,312.43
43289.0,304.14
43299.0,266.02
43310.0,216.25
43320.0,187.45
43329.0,178.76
43339.0,136.09
43350.0,6.93
43360.0,-133.29
43369.0,-142.71
43379.0,-16.3
43389.0,102.25
43400.0,129.32
43409.0,119.21
43419.0,110.56
43429.0,90.5
43440.0,73.02
43450.0,72.61
43459.0,87.36
43469.0,105.63
43480.0,97.51
43490.0,67.29
43499.0,46.63
43509.0,36.57
43520.0,40.75
43530.0,64.84
43539.0,82.83
43549.0,79.48
43559.0,79.88
43570.0,88.61
43579.0,52.91
43589.0,-28.53
43599.0,-72.39
43610.0,-36.75
43620.0,41.4
43629.0,97.23
43639.0,113.32
43650.0,127.5
43660.0,117.95
43669.0,33.34
43679.0,-77.42
43689.0,-133.85
43700.0,-132.48
43709.0,-115.71
43719.0,-112.16
43729.0,-123.89
43740.0,-140.62
43749.0,-164.14
43759.0,-191.26
43769.0,-184.33
43780.0,-138.55
43790.0,-109.36
43799.0,-111.66
43809.0,-124.53
43820.0,-145.48
43830.0,-143.38
43839.0,-101.03
43849.0,-68.09
43859.0,-79.65
43870.0,-110.95
43879.0,-119.44
43889.0,-109.05
43899.0,-116.82
43910.0,-153.14
43919.0,-184.25
43929.0,-163.57
43939.0,-123.62
43950.0,-120.22
43960.0,-113.8
43969.0,-87.03
43979.0,-79.46
43990.0,-89.4
44000.0,-104.24
44009.0,-111.67
44019.0,-95.21
44029.0,-66.74
44040.0,-49.25
44049.0,-53.23
44059.0,-65.11
44069.0,-65.96
44080.0,-55.9
44090.0,-49.77
44099.0,-54.7
44109.0,-47.14
44120.0,-26.1
44130.0,-17.41
44139.0,4.22
44149.0,41.44
44160.0,47.95
44170.0,37.36
44179.0,102.81
44189.0,302.69
44199.0,443.14
44210.0,254.64
44219.0,-166.32
44229.0,-447.51
44239.0,-376.48
44250.0,-115.32
44260.0,40.28
44269.0,-77.52
44279.0,-390.01
44290.0,-529.8
44300.0,-347.81
44309.0,-41.27
44319.0,288.76
44329.0,479.51
44340.0,399.54
44349.0,298.63
44359.0,302.55
44369.0,202.26
44380.0,33.88
44389.0,40.16
44399.0,156.68
44409.0,168.76
44420.0,107.27
44430.0,105.57
44439.0,139.87
44449.0,140.31
44460.0,113.36
44470.0,80.72
44479.0,57.08
44489.0,23.46
44499.0,-23.79
44510.0,-15.73
44519.0,41.44
44529.0,52.3
44539.0,14.72
44550.0,0.9
44559.0,12.88
44569.0,4.4
44579.0,-13.11
44590.0,-12.14
44600.0,-10.47
44609.0,-7.02
44619.0,3.99
44630.0,-5.25
44640.0,-30.19
44649.0,-40.72
44659.0,-30.77
44669.0,-18.5
44680.0,-18.46
44689.0,-13.07
44699.0,1.18
44709.0,6.3
44720.0,17.5
44730.0,47.14
44739.0,72.29
44749.0,61.36
44760.0,-0.41
44770.0,-85.97
44779.0,-145.86
44789.0,-191.46
44800.0,-267.14
44810.0,-309.04
44819.0,-256.17
44829.0,-189.92
44839.0,-166.17
44850.0,-145.71
44859.0,-109.97
44869.0,-60.05
44879.0,12.11
44890.0,90.44
44900.0,158.11
44909.0,204.18
44919.0,226.83
44930.0,247.37
44940.0,268.32
44949.0,277.13
44959.0,260.64
44969.0,228.5
44980.0,225.91
44989.0,251.63
44999.0,254.94
45009.0,229.08
45020.0,200.3
45029.0,175.07
45039.0,155.47
45049.0,150.84
45060.0,149.16
45070.0,121.76
45079.0,64.04
45089.0,11.64
45100.0,9.92
45110.0,41.44
45119.0,47.3
45129.0,36.0
45139.0,51.47
45150.0,77.99
45159.0,68.52
45169.0,27.47
45179.0,-0.47
45190.0,-16.59
45199.0,-59.64
45209.0,-113.39
45219.0,-123.78
45230.0,-93.69
45240.0,-72.25
45249.0,-68.48
45259.0,-44.76
45270.0,-6.94
45280.0,-17.26
45289.0,-73.2
45299.0,-84.46
45309.0,-24.21
45320.0,22.44
45329.0,10.78
45339.0,-15.89
45349.0,-40.93
45360.0,-78.26
45370.0,-106.7
45379.0,-111.04
45389.0,-115.71
45400.0,-121.38
45410.0,-109.81
45419.0,-100.44
45429.0,-109.5
45440.0,-121.38
45450.0,-121.91
45459.0,-108.26
45469.0,-89.57
45479.0,-86.3
45490.0,-107.24
45499.0,-137.4
45509.0,-148.81
45519.0,-112.66
45530.0,-48.34
45540.0,-32.68
45549.0,-78.18
45559.0,-103.33
45570.0,-89.25
45580.0,-98.93
45589.0,-134.48
45599.0,-148.35
45609.0,-138.76
45620.0,-73.95
45629.0,128.64
45639.0,367.46
45649.0,402.73
45660.0,232.37
45669.0,56.5
45679.0,-35.98
45689.0,-93.15
45700.0,-139.27
45710.0,-153.98
45719.0,-155.59
45729.0,-159.23
45740.0,-146.59
45750.0,-195.18
45759.0,-408.43
45769.0,-611.98
45779.0,-557.25
45790.0,-348.54
45799.0,-198.52
45809.0,-170.57
45819.0,-261.57
45830.0,-338.93
45839.0,-279.88
45849.0,-160.8
45859.0,-40.98
45870.0,147.89
45880.0,398.43
45889.0,519.17
45899.0,392.78
45910.0,238.9
45920.0,262.81
45929.0,284.27
45939.0,134.22
45949.0,-53.13
45960.0,-128.13
45969.0,-51.38
45979.0,72.19
45989.0,138.0
46000.0,295.31
46010.0,535.13
46019.0,516.32
46029.0,161.29
46040.0,-164.61
46050.0,-141.16
46059.0,81.03
46069.0,161.07
46080.0,102.57
46090.0,105.25
46099.0,157.65
46109.0,136.09
46119.0,83.65
46130.0,103.95
46139.0,157.22
46149.0,162.49
46159.0,123.7
46170.0,86.75
46180.0,81.89
46189.0,98.19
46199.0,101.46
46210.0,85.02
46220.0,67.31
46229.0,57.29
46239.0,52.74
46249.0,48.83
46260.0,41.63
46269.0,24.57
46279.0,-3.02
46289.0,-11.43
46300.0,17.7
46309.0,35.38
46319.0,2.59
46329.0,-28.02
46340.0,0.09
46350.0,42.98
46359.0,34.91
46369.0,5.33
46380.0,-36.49
46390.0,-182.28
46399.0,-354.0
46409.0,-323.85
46419.0,-146.74
46430.0,-50.42
46439.0,-44.05
46449.0,-20.74
46459.0,24.88
46470.0,40.19
46479.0,28.33
46489.0,34.29
46499.0,58.0
46510.0,64.44
46520.0,52.87
46529.0,49.59
46539.0,51.67
46550.0,32.17
46560.0,-5.15
46569.0,-22.91
46579.0,-8.98
46589.0,-5.52
46600.0,-31.98
46609.0,-39.2
46619.0,-12.65
46629.0,-4.41
46640.0,-24.22
46650.0,-34.01
46659.0,-30.71
46669.0,-30.24
46680.0,-18.13
46690.0,4.18
46699.0,5.49
46709.0,-9.47
46720.0,-21.65
46730.0,-31.22
46739.0,-37.31
46749.0,-41.7
46759.0,-39.5
46770.0,-32.64
46779.0,-36.87
46789.0,-49.63
46799.0,-58.21
46810.0,-46.48
46820.0,-14.42
46829.0,-0.57
46839.0,-20.17
46850.0,-39.6
46860.0,-37.71
46869.0,-22.36
46879.0,-6.24
46889.0,-10.1
46900.0,-46.23
46909.0,-76.55
46919.0,-70.25
46929.0,-64.46
46940.0,-75.04
46949.0,-50.97
46959.0,19.25
46969.0,62.73
46980.0,9.82
46990.0,-101.16
46999.0,-141.51
47009.0,-65.8
47020.0,16.97
47030.0,9.37
47039.0,-43.2
47049.0,-51.53
47059.0,-22.44
47070.0,-2.84
47079.0,-0.54
47089.0,-9.6
47099.0,-10.71
47110.0,-0.71
47119.0,-8.1
47129.0,-21.16
47139.0,-4.59
47150.0,22.57
47160.0,26.11
47169.0,15.15
47179.0,3.53
47190.0,-14.24
47200.0,-17.9
47209.0,8.26
47219.0,32.73
47229.0,37.58
47240.0,37.91
47249.0,43.5
47259.0,42.44
47269.0,27.93
47280.0,20.82
47290.0,13.39
47299.0,-6.59
47309.0,-6.41
47320.0,14.62
47330.0,24.32
47339.0,15.84
47349.0,16.93
47360.0,46.84
47370.0,58.74
47379.0,34.0
47389.0,29.76
47399.0,51.01
47410.0,55.98
47419.0,32.99
47429.0,9.62
47439.0,25.81
47450.0,52.94
47460.0,40.36
47469.0,19.0
47479.0,18.7
47490.0,3.32
47500.0,-71.82
47509.0,-183.03
47519.0,-259.01
47529.0,-284.52
47540.0,-269.41
47549.0,-215.91
47559.0,-168.83
47569.0,-154.0
47580.0,-126.95
47589.0,-61.16
47599.0,-8.84
47609.0,3.02
47620.0,27.25
47630.0,78.94
47639.0,113.0
47649.0,118.52
47660.0,134.34
47670.0,177.59
47679.0,206.15
47689.0,198.71
47699.0,185.6
47710.0,172.09
47719.0,154.57
47729.0,158.17
47739.0,186.59
47750.0,206.92
47759.0,188.05
47769.0,152.02
47779.0,152.49
47790.0,180.2
47800.0,189.52
47809.0,164.39
47819.0,104.39
47830.0,43.05
47840.0,35.27
47849.0,83.62
47859.0,127.83
47869.0,118.15
47880.0,84.36
47889.0,68.78
47899.0,55.52
47909.0,34.7
47920.0,25.81
47930.0,37.63
47939.0,42.11
47949.0,2.93
47960.0,-41.35
47970.0,-41.21
47979.0,-28.42
47989.0,-20.62
48000.0,24.1
48010.0,123.61
48019.0,217.88
48029.0,246.33
48039.0,250.44
48050.0,258.85
48059.0,231.42
48069.0,177.25
48079.0,130.64
48090.0,74.93
48100.0,-11.1
48109.0,-100.62
48119.0,-175.41
48130.0,-239.06
48140.0,-293.76
48149.0,-355.02
48159.0,-411.27
48169.0,-426.64
48180.0,-410.62
48189.0,-392.73
48199.0,-368.18
48209.0,-338.88
48220.0,-319.87
48229.0,-307.92
48239.0,-300.61
48249.0,-295.4
48260.0,-282.13
48270.0,-251.05
48279.0,-208.69
48289.0,-167.53
48300.0,-110.05
48310.0,-28.05
48319.0,41.36
48329.0,54.38
48339.0,-1.62
48350.0,-79.1
48359.0,-118.27
48369.0,-116.13
48379.0,-98.73
48390.0,-85.41
48399.0,-77.2
48409.0,-73.75
48419.0,-77.16
48430.0,-66.21
48440.0,-42.5
48449.0,-35.98
48459.0,-42.91
48470.0,-44.23
48480.0,-28.73
48489.0,0.95
48499.0,28.77
48509.0,54.92
48520.0,81.88
48529.0,87.75
48539.0,49.75
48549.0,2.58
48560.0,20.77
48570.0,88.13
48579.0,117.16
48589.0,97.09
48600.0,82.83
48610.0,103.06
48619.0,130.27
48629.0,130.7
48640.0,124.14
48650.0,130.31
48659.0,131.35
48669.0,120.94
48679.0,102.7
48690.0,83.28
48699.0,74.74
48709.0,56.09
48719.0,12.72
48730.0,-1.85
48740.0,48.39
48749.0,110.59
48759.0,131.5
48770.0,130.86
48780.0,142.07
48789.0,157.41
48799.0,159.98
48809.0,158.81
48820.0,192.77
48829.0,271.64
48839.0,297.95
48849.0,199.76
48860.0,81.29
48869.0,41.87
48879.0,32.9
48889.0,15.67
48900.0,20.66
48910.0,31.92
48919.0,17.04
48929.0,6.92
48940.0,13.39
48950.0,6.97
48959.0,-2.84
48969.0,-3.9
48979.0,-8.98
48990.0,-11.32
48999.0,-11.5
49009.0,-6.74
49019.0,26.51
49030.0,55.69
49039.0,42.27
49049.0,18.0
49059.0,4.01
49070.0,-11.35
49080.0,-22.75
49089.0,-22.26
49099.0,-12.46
49110.0,-7.42
49120.0,-28.85
49129.0,-55.5
49139.0,-44.81
49149.0,-18.18
49160.0,-17.9
49169.0,-28.18
49179.0,-22.24
49189.0,-12.69
49200.0,-16.5
49210.0,-26.1
49219.0,-28.42
49229.0,-16.09
49240.0,0.79
49250.0,-5.45
49259.0,-34.68
49269.0,-58.24
49280.0,-55.28
49290.0,-31.58
49299.0,-27.84
49309.0,-50.57
49319.0,-53.95
49330.0,-38.88
49339.0,-36.25
49349.0,-34.68
49359.0,-21.12
49370.0,-5.14
49380.0,1.37
49389.0,-26.63
49399.0,-91.34
49410.0,-120.08
49420.0,-68.42
49429.0,-17.65
49439.0,-26.04
49449.0,-30.54
49460.0,-7.72
49469.0,-12.12
49479.0,-33.4
49489.0,-29.69
49500.0,-30.18
49509.0,-51.11
49519.0,-53.51
49529.0,-38.43
49540.0,-37.18
49550.0,-44.1
49559.0,-43.04
49569.0,-41.68
49580.0,-45.33
49590.0,-35.19
49599.0,-10.2
49609.0,-4.96
49619.0,-20.6
49630.0,-23.88
49639.0,-24.6
49649.0,-34.77
49659.0,-24.82
49670.0,-5.15
49679.0,-16.53
49689.0,-38.79
49699.0,-36.35
49710.0,-31.65
49720.0,-44.33
49729.0,-45.65
49739.0,-26.13
49750.0,-8.79
49760.0,-1.11
49769.0,0.07
49779.0,0.61
49789.0,3.23
49800.0,-1.93
49809.0,-10.05
49819.0,-4.89
49829.0,7.38
49840.0,14.86
49850.0,20.73
49859.0,24.72
49869.0,28.35
49880.0,39.49
49890.0,47.53
49899.0,38.8
49909.0,20.9
49920.0,11.65
49930.0,23.22
49939.0,31.51
49949.0,5.53
49959.0,-8.81
49970.0,34.17
49979.0,69.58
49989.0,36.25
49999.0,-9.92
50010.0,-8.95
50020.0,8.1
50029.0,7.61
50039.0,6.25
50050.0,17.6
50060.0,38.2
50069.0,49.67
50079.0,31.82
50089.0,11.25
50100.0,12.47
50109.0,9.26
50119.0,2.45
50129.0,11.77
50140.0,13.42
50149.0,-2.82
50159.0,-7.19
50169.0,0.53
50180.0,-14.48
50190.0,-41.45
50199.0,-38.33
50209.0,-14.31
50220.0,1.82
50230.0,14.08
50239.0,35.09
50249.0,60.27
50259.0,68.07
50270.0,34.33
50279.0,-33.47
50289.0,-64.32
50299.0,-10.55
50310.0,52.03
50319.0,50.6
50329.0,24.93
50339.0,20.7
50350.0,23.75
50360.0,18.48
50369.0,19.52
50379.0,33.25
50390.0,36.12
50400.0,14.84
50409.0,-5.93
50419.0,-6.06
50429.0,0.57
50440.0,2.41
50449.0,-2.25
50459.0,-13.2
50469.0,-17.42
50480.0,-12.07
50490.0,-18.96
50499.0,-65.26
50509.0,-140.43
50520.0,-167.21
50530.0,-104.81
50539.0,-25.83
50549.0,14.93
50560.0,41.25
50570.0,63.48
50579.0,67.79
50589.0,64.79
50599.0,92.3
50610.0,143.36
50619.0,165.27
50629.0,185.5
50639.0,212.03
50650.0,159.94
50660.0,57.58
50669.0,1.22
50679.0,-12.54
50690.0,-27.01
50700.0,-59.23
50709.0,-88.59
50719.0,-97.73
50729.0,-96.05
50740.0,-90.66
50749.0,-93.68
50759.0,-97.85
50769.0,-81.69
50780.0,-65.14
50789.0,-77.41
50799.0,-104.68
50809.0,-99.39
50820.0,-66.31
50830.0,-69.6
50839.0,-87.82
50849.0,-62.42
50860.0,-31.76
50870.0,-33.95
50879.0,-33.86
50889.0,6.82
50899.0,67.93
50910.0,62.7
50919.0,-89.19
50929.0,-282.46
50939.0,-278.03
50950.0,-102.65
50959.0,-5.57
50969.0,-10.99
50979.0,16.97
50990.0,83.94
51000.0,100.91
51009.0,38.68
51019.0,-7.75
51030.0,39.67
51040.0,104.19
51049.0,101.68
51059.0,68.16
51069.0,73.73
51080.0,115.51
51089.0,124.58
51099.0,82.26
51109.0,42.11
51120.0,35.35
51130.0,41.35
51139.0,32.63
51149.0,24.25
51160.0,30.48
51170.0,31.76
51179.0,30.84
51189.0,30.68
51200.0,26.38
51210.0,28.04
51219.0,28.44
51229.0,27.19
51239.0,74.55
51250.0,210.8
51259.0,327.72
51269.0,284.8
51279.0,181.0
51290.0,169.74
51300.0,168.7
51309.0,66.06
51319.0,-53.7
51330.0,-93.85
51340.0,-109.05
51349.0,-153.34
51359.0,-177.35
51369.0,-154.53
51380.0,-127.04
51389.0,-112.8
51399.0,-105.28
51409.0,-102.04
51420.0,-96.36
51429.0,-91.49
51439.0,-90.86
51449.0,-94.15
51460.0,-98.47
51470.0,-93.91
51479.0,-111.99
51489.0,-168.97
51500.0,-154.6
51510.0,-15.99
51519.0,77.37
51529.0,25.63
51539.0,-30.63
51550.0,-5.89
51559.0,10.88
51569.0,-22.97
51579.0,-39.75
51590.0,10.25
51599.0,85.35
51609.0,93.46
51619.0,30.67
51630.0,15.34
51640.0,81.49
51649.0,94.46
51659.0,7.93
51670.0,-43.55
51680.0,-12.9
51689.0,1.98
51699.0,-20.63
51709.0,-23.23
51720.0,-1.33
51729.0,10.15
51739.0,-4.49
51749.0,-15.46
51760.0,5.63
51770.0,-55.54
51779.0,-311.08
51789.0,-525.3
51800.0,-450.56
51810.0,-268.93
51819.0,-192.36
51829.0,-145.86
51840.0,-32.07
51850.0,81.91
51859.0,119.41
51869.0,124.86
51879.0,165.84
51890.0,219.61
51899.0,211.54
51909.0,166.5
51919.0,162.99
51930.0,181.12
51940.0,175.56
51949.0,157.55
51959.0,154.41
51970.0,161.67
51980.0,155.37
51989.0,146.47
51999.0,151.8
52009.0,154.59
52020.0,138.34
52029.0,110.87
52039.0,103.55
52049.0,115.64
52060.0,105.89
52069.0,76.63
52079.0,49.69
52089.0,28.01
52100.0,23.52
52110.0,24.69
52119.0,16.59
52129.0,19.84
52140.0,34.55
52150.0,36.43
52159.0,31.74
52169.0,35.74
52179.0,32.48
52190.0,21.44
52199.0,28.94
52209.0,39.63
52219.0,22.2
52230.0,-3.19
52239.0,-10.36
52249.0,-11.52
52259.0,-20.14
52270.0,-29.17
52280.0,-27.59
52289.0,-15.42
52299.0,-8.12
52310.0,-20.0
52320.0,-37.94
52329.0,-35.07
52339.0,-17.48
52349.0,-19.49
52360.0,-43.79
52369.0,-55.07
52379.0,-45.98
52389.0,-49.48
52400.0,-73.26
52410.0,-89.92
52419.0,-106.97
52429.0,-172.96
52440.0,-276.12
52450.0,-332.82
52459.0,-319.17
52469.0,-293.11
52480.0,-286.28
52490.0,-271.1
52499.0,-230.05
52509.0,-182.76
52519.0,-138.7
52530.0,-95.76
52539.0,-56.74
52549.0,-27.5
52559.0,-11.16
52570.0,15.42
52580.0,82.83
52589.0,158.94
52599.0,161.87
52610.0,92.97
52620.0,61.09
52629.0,121.87
52639.0,200.1
52649.0,215.51
52660.0,196.64
52669.0,205.73
52679.0,212.69
52689.0,155.85
52700.0,89.54
52709.0,119.37
52719.0,191.29
52729.0,158.13
52740.0,52.87
52750.0,38.16
52759.0,132.84
52769.0,191.97
52780.0,133.7
52790.0,55.71
52799.0,66.46
52809.0,118.68
52819.0,104.12
52830.0,31.36
52839.0,20.44
52849.0,126.22
52859.0,268.54
52870.0,348.4
52879.0,350.35
52889.0,327.69
52899.0,298.04
52910.0,239.7
52920.0,176.36
52929.0,136.12
52939.0,102.9
52950.0,61.48
52960.0,-3.25
52969.0,-122.18
52979.0,-269.67
52989.0,-361.77
53000.0,-363.34
53009.0,-320.92
53019.0,-316.23
53029.0,-378.98
53040.0,-435.13
53050.0,-420.78
53059.0,-384.68
53069.0,-383.83
53080.0,-388.24
53090.0,-355.86
53099.0,-308.93
53109.0,-289.73
53120.0,-293.03
53130.0,-287.52
53139.0,-262.85
53149.0,-225.73
53159.0,-187.32
53170.0,-157.45
53179.0,-139.62
53189.0,-131.4
53199.0,-124.16
53210.0,-111.82
53220.0,-94.26
53229.0,-68.5
53239.0,-33.61
53250.0,3.05
53260.0,31.65
53269.0,46.38
53279.0,48.23
53289.0,35.31
53300.0,9.98
53309.0,-3.49
53319.0,8.57
53329.0,29.72
53340.0,45.7
53349.0,54.33
53359.0,60.6
53369.0,72.98
53380.0,84.67
53390.0,84.41
53399.0,69.95
53409.0,54.18
53420.0,66.93
53430.0,91.76
53439.0,82.89
53449.0,67.81
53459.0,85.6
53470.0,98.79
53479.0,88.59
53489.0,98.61
53499.0,131.33
53510.0,132.36
53519.0,85.25
53529.0,52.72
53539.0,90.84
53550.0,143.57
53560.0,134.0
53569.0,105.98
53579.0,122.09
53590.0,143.94
53600.0,131.47
53609.0,108.53
53619.0,96.48
53629.0,91.32
53640.0,95.97
53649.0,110.83
53659.0,109.64
53669.0,90.49
53680.0,90.52
53690.0,101.1
53699.0,89.28
53709.0,73.73
53720.0,82.02
53730.0,99.2
53739.0,93.68
53749.0,68.29
53760.0,58.65
53770.0,71.11
53779.0,70.82
53789.0,49.79
53799.0,31.9
53810.0,13.39
53819.0,-5.9
53829.0,5.24
53839.0,38.52
53850.0,44.96
53860.0,18.63
53869.0,-2.43
53879.0,-1.28
53890.0,10.44
53900.0,21.9
53909.0,22.22
53919.0,3.18
53929.0,-8.87
53940.0,8.12
53949.0,23.26
53959.0,20.77
53969.0,16.13
53980.0,-2.8
53989.0,-31.83
53999.0,-33.79
54009.0,-14.76
54020.0,-2.53
54030.0,5.51
54039.0,13.08
54049.0,15.83
54060.0,12.84
54070.0,-2.2
54079.0,-22.25
54089.0,-26.95
54099.0,-29.84
54110.0,-58.12
54119.0,-88.15
54129.0,-77.89
54139.0,-48.4
54150.0,-51.23
54159.0,-66.72
54169.0,-52.69
54179.0,-29.46
54190.0,-20.62
54200.0,-26.19
54209.0,-32.18
54219.0,-12.89
54230.0,-9.48
54240.0,-68.64
54249.0,-107.57
54259.0,-56.41
54269.0,-3.81
54280.0,-30.19
54289.0,-67.08
54299.0,-48.08
54309.0,-21.38
54320.0,-27.12
54330.0,-41.26
54339.0,-38.11
54349.0,-22.37
54360.0,-20.1
54370.0,-25.59
54379.0,-25.83
54389.0,-38.08
54400.0,-52.18
54410.0,-52.12
54419.0,-44.35
54429.0,-29.02
54439.0,-22.23
54450.0,-25.96
54459.0,-16.22
54469.0,-7.87
54479.0,-11.05
54490.0,-5.73
54500.0,4.81
54509.0,0.76
54519.0,-20.78
54530.0,-36.35
54540.0,-35.31
54549.0,-31.03
54559.0,-26.6
54569.0,-25.3
54580.0,-27.39
54589.0,-30.84
54599.0,-30.61
54609.0,-10.92
54620.0,7.72
54629.0,1.68
54639.0,-9.59
54649.0,-12.74
54660.0,-2.25
54670.0,17.28
54679.0,28.95
54689.0,22.37
54700.0,-20.73
54710.0,-66.16
54719.0,-42.05
54729.0,24.08
54739.0,37.92
54750.0,-20.14
54759.0,-134.44
54769.0,-328.91
54779.0,-442.34
54790.0,-258.27
54799.0,-6.08
54809.0,81.41
54819.0,236.71
54830.0,475.46
54840.0,464.18
54849.0,250.18
54859.0,133.81
54870.0,126.93
54880.0,96.7
54889.0,38.04
54899.0,2.42
54909.0,-7.45
54920.0,-8.54
54929.0,-11.77
54939.0,-19.1
54949.0,-18.98
54960.0,-12.55
54970.0,-10.98
54979.0,-16.29
54989.0,-14.22
55000.0,6.75
55010.0,22.48
55019.0,22.87
55029.0,30.61
55040.0,16.69
55050.0,-55.06
55059.0,-114.19
55069.0,-69.78
55079.0,22.79
55090.0,36.86
55099.0,-9.06
55109.0,-20.72
55119.0,-6.54
55130.0,-4.79
55140.0,-11.71
55149.0,-10.96
55159.0,-1.27
55170.0,-5.7
55180.0,-15.13
55189.0,-5.5
55199.0,14.76
55209.0,26.52
55220.0,11.78
55229.0,-5.15
55239.0,9.88
55249.0,32.69
55260.0,48.39
55269.0,54.53
55279.0,45.95
55289.0,51.77
55300.0,50.95
55310.0,1.93
55319.0,-39.77
55329.0,-32.9
55340.0,-31.44
55350.0,-59.62
55359.0,-67.61
55369.0,-49.22
55379.0,-47.23
55390.0,-55.88
55399.0,-56.05
55409.0,-49.33
55419.0,-35.1
55430.0,-28.56
55439.0,-24.3
55449.0,-2.66
55459.0,17.39
55470.0,17.13
55480.0,3.6
55489.0,7.74
55499.0,37.85
55510.0,41.63
55520.0,12.42
55529.0,2.14
55539.0,15.26
55549.0,27.52
55560.0,29.76
55569.0,30.06
55579.0,30.34
55589.0,16.93
55600.0,3.99
55610.0,10.57
55619.0,27.62
55629.0,39.09
55640.0,30.15
55650.0,16.43
55659.0,22.92
55669.0,27.46
55680.0,11.46
55690.0,1.81
55699.0,12.54
55709.0,21.38
55719.0,23.82
55730.0,40.38
55739.0,47.33
55749.0,17.37
55759.0,-9.62
55770.0,-3.9
55780.0,22.42
55789.0,40.47
55799.0,24.37
55810.0,7.27
55820.0,18.67
55829.0,21.64
55839.0,7.54
55849.0,4.47
55860.0,5.36
55869.0,-5.09
55879.0,-11.78
55889.0,-1.78
55900.0,10.66
55909.0,17.71
55919.0,23.34
55929.0,21.83
55940.0,13.4
55950.0,8.92
55959.0,26.35
55969.0,57.52
55980.0,39.12
55990.0,-34.51
55999.0,-61.22
56009.0,-12.55
56019.0,25.88
56030.0,22.31
56039.0,8.85
56049.0,-2.78
56059.0,-11.2
56070.0,-10.28
56079.0,-16.17
56089.0,-38.61
56099.0,-36.61
56110.0,0.07
56120.0,14.31
56129.0,-7.13
56139.0,-23.42
56150.0,-25.32
56160.0,-30.45
56169.0,-40.19
56179.0,-44.66
56189.0,-38.2
56200.0,-19.02
56209.0,-2.55
56219.0,-6.17
56229.0,-12.39
56240.0,-8.84
56250.0,-17.84
56259.0,-38.22
56269.0,-37.23
56280.0,-18.73
56290.0,-15.54
56299.0,-29.4
56309.0,-33.81
56320.0,-23.26
56330.0,-28.06
56339.0,-52.32
56349.0,-53.81
56359.0,-29.15
56370.0,-22.66
56379.0,-31.85
56389.0,-20.43
56399.0,-2.11
56410.0,-7.4
56420.0,-23.06
56429.0,-22.36
56439.0,-6.61
56450.0,6.88
56460.0,2.0
56469.0,-22.04
56479.0,-31.99
56489.0,-8.12
56500.0,12.07
56509.0,-0.47
56519.0,-16.27
56529.0,-5.92
56540.0,13.11
56549.0,15.15
56559.0,5.28
56569.0,2.88
56580.0,8.12
56590.0,5.66
56599.0,-1.11
56609.0,-4.45
56620.0,-17.67
56630.0,-26.92
56639.0,-7.18
56649.0,4.7
56659.0,-16.73
56670.0,-21.15
56679.0,15.29
56689.0,55.56
56699.0,66.64
56710.0,22.62
56719.0,-55.47
56729.0,-64.34
56739.0,16.79
56750.0,60.87
56760.0,29.09
56769.0,16.87
56779.0,35.88
56790.0,19.13
56800.0,-21.01
56809.0,-19.67
56819.0,14.14
56829.0,19.63
56840.0,1.61
56849.0,-3.77
56859.0,-8.24
56869.0,-9.84
56880.0,13.3
56890.0,30.05
56899.0,11.98
56909.0,-7.34
56920.0,4.79
56930.0,34.73
56939.0,50.29
56949.0,41.89
56960.0,34.94
56970.0,40.56
56979.0,34.49
56989.0,18.93
56999.0,8.0
57010.0,-18.13
57019.0,-53.62
57029.0,-58.12
57039.0,-34.81
57050.0,-14.8
57060.0,-4.93
57069.0,-6.84
57079.0,-15.45
57090.0,-9.61
57100.0,7.3
57109.0,7.61
57119.0,-5.6
57129.0,-2.85
57140.0,5.92
57149.0,1.0
57159.0,9.01
57169.0,25.89
57180.0,9.0
57189.0,-19.42
57199.0,-6.73
57209.0,26.24
57220.0,17.23
57230.0,-21.58
57239.0,-8.43
57249.0,68.39
57260.0,133.77
57270.0,160.45
57279.0,191.98
57289.0,232.47
57299.0,239.98
57310.0,212.63
57319.0,179.94
57329.0,154.71
57339.0,134.11
57350.0,111.53
57359.0,83.24
57369.0,43.63
57379.0,-5.96
57390.0,-46.09
57400.0,-69.8
57409.0,-95.83
57419.0,-137.18
57430.0,-185.01
57440.0,-210.65
57449.0,-194.73
57459.0,-167.24
57469.0,-163.92
57480.0,-164.86
57489.0,-141.35
57499.0,-131.01
57509.0,-187.98
57520.0,-203.21
57530.0,3.54
57539.0,261.91
57549.0,257.14
57560.0,89.11
57570.0,12.88
57579.0,-53.3
57589.0,-332.72
57600.0,-629.63
57610.0,-528.25
57619.0,-195.53
57629.0,-55.7
57639.0,15.26
57650.0,224.88
57659.0,323.5
57669.0,70.69
57679.0,-411.88
57690.0,-750.67
57700.0,-670.98
57709.0,-351.19
57719.0,-94.85
57730.0,-23.07
57740.0,-129.04
57749.0,-177.58
57759.0,53.22
57769.0,429.44
57780.0,624.56
57789.0,538.82
57799.0,385.99
57809.0,312.3
57820.0,258.11
57829.0,160.66
57839.0,50.94
57849.0,-3.93
57860.0,-5.59
57870.0,-15.8
57879.0,-58.43
57889.0,-135.19
57900.0,-242.72
57910.0,-329.28
57919.0,-358.31
57929.0,-357.87
57939.0,-366.93
57950.0,-360.31
57959.0,-300.92
57969.0,-232.08
57979.0,-190.79
57990.0,-135.37
57999.0,-37.1
58009.0,20.73
58019.0,-21.67
58030.0,-52.41
58040.0,5.82
58049.0,67.25
58059.0,79.97
58070.0,110.34
58080.0,195.12
58089.0,278.08
58099.0,339.66
58109.0,407.44
58120.0,462.52
58129.0,490.86
58139.0,506.5
58149.0,490.9
58160.0,447.36
58170.0,428.11
58179.0,430.01
58189.0,415.52
58200.0,382.6
58210.0,360.88
58219.0,449.21
58229.0,660.97
58240.0,683.14
58250.0,318.27
58259.0,-40.15
58269.0,-47.72
58279.0,66.9
58290.0,65.47
58299.0,51.46
58309.0,102.27
58319.0,177.89
58330.0,304.62
58340.0,307.96
58349.0,-59.12
58359.0,-417.03
58370.0,-272.04
58380.0,57.18
58389.0,89.41
58399.0,-12.39
58409.0,34.67
58420.0,135.47
58429.0,163.65
58439.0,123.56
58449.0,14.06
58460.0,-119.22
58469.0,-214.2
58479.0,-264.07
58489.0,-332.45
58500.0,-494.04
58510.0,-633.07
58519.0,-531.35
58529.0,-256.79
58540.0,-119.76
58550.0,-181.97
58559.0,-206.34
58569.0,-116.78
58579.0,-79.07
58590.0,-158.05
58599.0,-231.06
58609.0,-222.41
58619.0,-201.4
58630.0,-215.79
58639.0,-231.67
58649.0,-233.23
58659.0,-231.72
58670.0,-241.48
58680.0,-248.27
58689.0,-213.13
58699.0,-154.75
58710.0,-119.98
58720.0,-118.2
58729.0,-143.14
58739.0,-164.94
58749.0,-162.84
58760.0,-152.03
58769.0,-140.6
58779.0,-135.92
58789.0,-139.96
58800.0,-150.7
58810.0,-162.5
58819.0,-135.56
58829.0,-67.56
58840.0,-19.21
58850.0,-15.19
58859.0,-12.54
58869.0,23.86
58880.0,57.32
58890.0,61.09
58899.0,59.9
58909.0,44.69
58919.0,11.84
58930.0,-5.3
58939.0,2.62
58949.0,28.24
58959.0,45.7
58970.0,41.96
58980.0,39.17
58989.0,24.82
58999.0,1.13
59010.0,22.32
59020.0,80.54
59029.0,37.95
59039.0,-204.96
59049.0,-422.4
59060.0,-362.97
59069.0,-187.2
59079.0,-111.92
59089.0,-69.54
59100.0,38.97
59109.0,143.3
59119.0,185.81
59129.0,221.29
59140.0,263.33
59150.0,312.77
59159.0,484.58
59169.0,768.89
59180.0,855.77
59190.0,657.58
59199.0,462.1
59209.0,356.2
59219.0,256.27
59230.0,204.07
59239.0,188.54
59249.0,118.68
59259.0,21.39
59270.0,-29.53
59279.0,-48.93
59289.0,-65.05
59299.0,-81.02
59310.0,-93.72
59320.0,-88.46
59329.0,-77.39
59339.0,-75.03
59350.0,-140.79
59360.0,-353.14
59369.0,-531.99
59379.0,-464.76
59389.0,-317.13
59400.0,-284.5
59409.0,-252.1
59419.0,-104.14
59429.0,28.88
59440.0,51.71
59450.0,62.61
59459.0,119.37
59469.0,172.57
59480.0,181.2
59490.0,163.24
59499.0,163.91
59509.0,184.52
59520.0,173.51
59530.0,109.14
59539.0,53.23
59549.0,59.97
59559.0,94.19
59570.0,109.67
59579.0,108.91
59589.0,103.4
59599.0,101.56
59610.0,98.96
59620.0,77.51
59629.0,47.52
59639.0,33.25
59650.0,37.49
59660.0,46.39
59669.0,53.83
59679.0,65.82
59689.0,66.0
59700.0,41.62
59709.0,18.81
59719.0,8.19
59729.0,5.38
59740.0,15.8
59749.0,22.9
59759.0,12.12
59769.0,-0.09
59780.0,1.67
59790.0,11.54
59799.0,10.65
59809.0,-8.97
59820.0,-27.36
59830.0,-20.48
59839.0,2.06
59849.0,7.7
59859.0,-31.26
59870.0,-159.12
59879.0,-305.82
59889.0,-278.7
59899.0,-199.67
59910.0,-315.96
59919.0,-430.59
59929.0,-329.01
59939.0,-169.96
59950.0,-87.3
59960.0,-57.75
59969.0,-59.74
59979.0,-30.52
59990.0,61.74
60000.0,120.95
60009.0,91.19
60019.0,45.48
60029.0,67.4
60040.0,140.96
60049.0,176.92
60059.0,152.43
60069.0,131.67
60080.0,136.15
60090.0,122.2
60099.0,81.64
60109.0,55.73
60120.0,56.55
60130.0,51.15
60139.0,34.79
60149.0,37.55
60160.0,51.0
60170.0,42.98
60179.0,23.32
60189.0,18.96
60199.0,31.19
60210.0,47.19
60219.0,52.4
60229.0,40.86
60239.0,28.5
60250.0,66.46
60260.0,227.4
60269.0,439.78
60279.0,384.65
60290.0,-77.74
60300.0,-504.21
60309.0,-471.54
60319.0,-239.24
60329.0,-187.38
60340.0,-230.34
60349.0,-193.51
60359.0,-127.18
60369.0,-108.79
60380.0,-101.62
60389.0,-64.85
60399.0,-36.79
60409.0,-43.24
60420.0,-49.18
60430.0,-37.16
60439.0,-31.5
60449.0,-38.41
60460.0,-39.56
60470.0,-36.13
60479.0,-33.42
60489.0,-15.02
60499.0,67.05
60510.0,257.41
60519.0,436.81
60529.0,420.82
60539.0,270.26
60550.0,153.84
60559.0,76.37
60569.0,-21.23
60579.0,-114.79
60590.0,-163.67
60600.0,-188.97
60609.0,-216.91
60619.0,-243.33
60630.0,-258.43
60640.0,-254.29
60649.0,-229.0
60659.0,-193.69
60669.0,-177.38
60680.0,-192.53
60689.0,-197.71
60699.0,-161.74
60709.0,-76.68
60720.0,83.98
60730.0,170.39
60739.0,-39.21
60749.0,-319.21
60760.0,-296.89
60770.0,-111.04
60779.0,-48.77
60789.0,-11.72
60800.0,186.96
60810.0,422.51
60819.0,465.47
60829.0,354.67
60839.0,282.02
60850.0,264.93
60859.0,193.21
60869.0,58.66
60879.0,-58.58
60890.0,-122.6
60900.0,-152.06
60909.0,-170.45
60919.0,-189.38
60930.0,-201.83
60940.0,-185.94
60949.0,-138.54
60959.0,-80.45
60969.0,-36.75
60980.0,-52.17
60989.0,-122.43
60999.0,-138.61
61009.0,-69.33
61020.0,-25.52
61029.0,-46.26
61039.0,-65.44
61049.0,-50.1
61060.0,-15.28
61070.0,13.48
61079.0,25.95
61089.0,31.56
61100.0,36.85
61110.0,43.66
61119.0,58.56
61129.0,85.81
61139.0,108.3
61150.0,96.12
61159.0,55.02
61169.0,18.4
61179.0,0.69
61190.0,-2.14
61199.0,9.71
61209.0,41.34
61219.0,69.3
61230.0,61.81
61240.0,44.36
61249.0,56.07
61259.0,67.46
61270.0,36.16
61280.0,5.48
61289.0,28.51
61299.0,68.19
61309.0,80.44
61320.0,82.52
61329.0,88.91
61339.0,86.93
61349.0,80.89
61360.0,88.7
61370.0,97.28
61379.0,91.36
61389.0,97.65
61400.0,114.27
61410.0,102.36
61419.0,73.21
61429.0,58.31
61440.0,55.93
61450.0,53.46
61459.0,58.54
61469.0,81.45
61479.0,86.11
61490.0,46.73
61499.0,14.61
61509.0,32.34
61519.0,62.67
61530.0,52.2
61540.0,17.02
61549.0,13.71
61559.0,40.69
61570.0,49.16
61580.0,27.08
61589.0,13.32
61599.0,28.09
61609.0,39.01
61620.0,27.91
61629.0,8.66
61639.0,-5.27
61649.0,3.83
61660.0,28.9
61669.0,27.74
61679.0,-5.96
61689.0,-18.02
61700.0,21.88
61710.0,48.39
61719.0,-11.02
61729.0,-88.63
61740.0,-54.04
61750.0,49.17
61759.0,57.0
61769.0,-22.37
61779.0,-54.56
61790.0,-29.04
61799.0,-6.47
61809.0,-6.83
61819.0,-32.07
61830.0,-69.42
61839.0,-98.1
61849.0,-94.35
61859.0,-58.18
61870.0,-35.99
61880.0,-43.25
61889.0,-47.91
61899.0,-34.77
61910.0,-21.92
61920.0,-114.79
61929.0,-386.19
61939.0,-594.58
61949.0,-512.26
61960.0,-324.61
61969.0,-235.33
61979.0,-187.28
61989.0,-106.44
62000.0,-16.08
62010.0,65.34
62019.0,128.5
62029.0,157.16
62040.0,174.35
62050.0,184.52
62059.0,175.74
62069.0,175.9
62080.0,196.27
62090.0,213.8
62099.0,229.83
62109.0,275.18
62119.0,308.88
62130.0,232.17
62139.0,79.8
62149.0,7.33
62159.0,49.64
62170.0,86.05
62180.0,64.42
62189.0,72.76
62199.0,148.44
62210.0,246.87
62220.0,346.03
62229.0,359.43
62239.0,235.89
62249.0,123.28
62260.0,109.44
62269.0,104.92
62279.0,65.25
62289.0,30.84
62300.0,16.37
62309.0,-0.09
62319.0,-28.86
62329.0,-59.54
62340.0,-82.31
62350.0,-100.42
62359.0,-123.73
62369.0,-145.52
62380.0,-162.98
62390.0,-178.31
62399.0,-159.54
62409.0,-113.7
62419.0,-103.03
62430.0,-124.16
62439.0,-136.69
62449.0,-158.65
62459.0,-234.31
62470.0,-348.22
62479.0,-391.28
62489.0,-290.11
62499.0,-156.67
62510.0,-157.88
62520.0,-270.28
62529.0,-322.95
62539.0,-263.35
62550.0,-191.87
62560.0,-162.84
62569.0,-147.25
62579.0,-121.73
62589.0,-96.66
62600.0,-85.06
62609.0,-68.79
62619.0,-44.12
62629.0,-32.2
62640.0,-28.93
62650.0,-25.11
62659.0,-20.99
62669.0,-25.9
62680.0,-44.76
62690.0,-52.35
62699.0,-40.83
62709.0,-29.69
62720.0,-16.96
62730.0,3.82
62739.0,-12.37
62749.0,-115.56
62759.0,-244.83
62770.0,-291.95
62779.0,-253.44
62789.0,-205.6
62799.0,-192.99
62810.0,-196.62
62820.0,-156.54
62829.0,-53.27
62839.0,48.94
62850.0,117.07
62860.0,184.42
62869.0,265.5
62879.0,313.11
62889.0,305.61
62900.0,317.65
62909.0,366.77
62919.0,389.36
62929.0,375.99
62940.0,360.28
62949.0,358.36
62959.0,347.38
62969.0,297.97
62980.0,223.57
62990.0,163.62
62999.0,145.7
63009.0,153.11
63020.0,155.05
63030.0,156.52
63039.0,122.32
63049.0,13.63
63059.0,-61.52
63070.0,23.51
63079.0,213.36
63089.0,328.2
63099.0,274.92
63110.0,165.35
63119.0,129.76
63129.0,141.41
63139.0,132.24
63150.0,103.28
63160.0,8.95
63169.0,-231.02
63179.0,-432.97
63190.0,-370.08
63200.0,-183.78
63209.0,-68.09
63219.0,-18.88
63229.0,20.84
63240.0,72.62
63249.0,99.02
63259.0,95.56
63269.0,119.07
63280.0,170.84
63290.0,187.25
63299.0,148.31
63309.0,114.65
63320.0,113.99
63330.0,94.91
63339.0,51.89
63349.0,23.29
63360.0,-6.37
63370.0,-47.14
63379.0,-51.91
63389.0,-24.27
63399.0,-86.09
63410.0,-255.83
63419.0,-356.38
63429.0,-344.17
63439.0,-294.27
63450.0,-184.99
63460.0,-57.38
63469.0,-2.55
63479.0,-18.04
63490.0,-56.44
63500.0,-40.72
63509.0,78.3
63519.0,219.64
63529.0,271.72
63540.0,277.94
63549.0,289.64
63559.0,236.64
63569.0,210.78
63580.0,339.33
63589.0,379.42
63599.0,139.63
63609.0,-110.46
63620.0,-157.17
63630.0,-56.39
63639.0,150.2
63649.0,302.16
63660.0,159.69
63670.0,-276.41
63679.0,-681.18
63689.0,-654.14
63699.0,-346.4
63710.0,-258.15
63719.0,-336.02
63729.0,-268.18
63739.0,-144.15
63750.0,-122.33
63759.0,-151.46
63769.0,-190.16
63779.0,-244.12
63790.0,-238.82
63800.0,-145.42
63809.0,-105.78
63819.0,-159.15
63830.0,-171.53
63840.0,-139.11
63849.0,-129.95
63859.0,-77.13
63869.0,29.84
63880.0,55.8
63889.0,-6.45
63899.0,-43.11
63909.0,-52.29
63920.0,-53.47
63930.0,-10.4
63939.0,38.3
63949.0,115.77
63960.0,296.25
63970.0,315.79
63979.0,-100.74
63989.0,-561.87
64000.0,-529.35
64010.0,-197.87
64019.0,-55.83
64029.0,-95.63
64039.0,-73.67
64050.0,2.24
64059.0,14.94
64069.0,-10.24
64079.0,6.23
64090.0,48.21
64100.0,54.84
64109.0,28.83
64119.0,18.49
64130.0,32.96
64140.0,46.95
64149.0,56.65
64159.0,67.01
64169.0,70.56
64180.0,62.29
64189.0,46.0
64199.0,45.08
64209.0,76.68
64220.0,105.24
64229.0,98.39
64239.0,89.12
64249.0,105.3
64260.0,120.33
64270.0,113.25
64279.0,137.78
64289.0,311.38
64300.0,571.1
64310.0,631.18
64319.0,469.4
64329.0,358.38
64339.0,355.39
64350.0,303.2
64359.0,149.69
64369.0,-67.02
64379.0,-376.04
64390.0,-686.39
64399.0,-728.12
64409.0,-537.04
64419.0,-418.23
64430.0,-399.18
64440.0,-315.2
64449.0,-158.24
64459.0,-24.42
64470.0,55.56
64480.0,103.06
64489.0,122.29
64499.0,125.19
64509.0,135.69
64520.0,147.14
64529.0,145.41
64539.0,140.03
64549.0,140.48
64560.0,135.51
64570.0,120.65
64579.0,119.38
64589.0,130.79
64600.0,123.54
64610.0,101.97
64619.0,89.34
64629.0,82.53
64640.0,70.64
64650.0,55.13
64659.0,33.77
64669.0,15.6
64679.0,34.6
64690.0,81.19
64699.0,95.52
64709.0,69.61
64719.0,55.55
64730.0,67.38
64740.0,65.78
64749.0,42.13
64759.0,31.87
64770.0,38.54
64780.0,31.94
64789.0,15.34
64799.0,8.21
64809.0,1.18
64820.0,-7.19
64829.0,-0.44
64839.0,14.06
64849.0,13.39
64860.0,-6.91
64869.0,-17.9
64879.0,-5.95
64889.0,-3.04
64900.0,-17.46
64910.0,-30.07
64919.0,-40.88
64929.0,-49.16
64940.0,-49.75
64950.0,-36.7
64959.0,-9.46
64969.0,1.56
64979.0,-19.38
64990.0,-36.02
64999.0,-21.57
65009.0,-1.0
65019.0,-2.6
65030.0,-6.96
65039.0,1.01
65049.0,-26.07
65059.0,-99.69
65070.0,-121.84
65080.0,-51.82
65089.0,-2.4
65099.0,-33.81
65110.0,-64.43
65120.0,-51.11
65129.0,-40.7
65139.0,-49.14
65149.0,-34.33
65160.0,21.08
65169.0,72.3
65179.0,72.45
65189.0,28.91
65200.0,-17.13
65210.0,-46.24
65219.0,-66.24
65229.0,-74.23
65240.0,-77.22
65250.0,-92.18
65259.0,-91.2
65269.0,-62.28
65280.0,-78.19
65290.0,-159.99
65299.0,-158.53
65309.0,-11.43
65319.0,75.93
65330.0,6.38
65339.0,-59.23
65349.0,-59.1
65359.0,-91.69
65370.0,-227.33
65380.0,-405.57
65389.0,-402.21
65399.0,-152.24
65410.0,33.39
65420.0,-35.92
65429.0,-142.82
65439.0,-101.26
65449.0,8.49
65460.0,62.66
65469.0,17.1
65479.0,-61.43
65489.0,1.45
65500.0,244.59
65509.0,446.07
65519.0,419.12
65529.0,266.89
65540.0,189.71
65550.0,178.09
65559.0,174.08
65569.0,269.83
65580.0,400.76
65590.0,371.58
65599.0,226.7
65609.0,109.96
65619.0,8.8
65630.0,-231.97
65639.0,-589.75
65649.0,-692.45
65659.0,-456.88
65670.0,-258.7
65679.0,-210.9
65689.0,-142.76
65699.0,-35.8
65710.0,24.07
65720.0,40.27
65729.0,83.54
65739.0,146.73
65750.0,168.18
65760.0,146.76
65769.0,122.05
65779.0,114.8
65789.0,122.88
65800.0,137.41
65809.0,133.06
65819.0,99.37
65829.0,63.41
65840.0,35.06
65850.0,32.71
65859.0,144.06
65869.0,378.25
65880.0,518.56
65890.0,430.29
65899.0,274.61
65909.0,178.62
65920.0,112.64
65930.0,53.36
65939.0,4.61
65949.0,-36.86
65959.0,-98.56
65970.0,-201.7
65979.0,-268.7
65989.0,-211.04
65999.0,-115.04
66010.0,-95.16
66020.0,-120.66
66029.0,-132.13
66039.0,-133.55
66050.0,-147.6
66060.0,-152.43
66069.0,-141.82
66079.0,-166.35
66089.0,-198.04
66100.0,-162.28
66109.0,-91.88
66119.0,-56.23
66129.0,-53.48
66140.0,-57.57
66149.0,-68.09
66159.0,-80.95
66169.0,-80.18
66180.0,-70.26
66190.0,-58.8
66199.0,-49.63
66209.0,-51.93
66220.0,-55.38
66230.0,-55.69
66239.0,-52.17
66249.0,-33.93
66259.0,-23.15
66270.0,-27.22
66279.0,-22.72
66289.0,-18.47
66299.0,-22.1
66310.0,-25.61
66319.0,-21.28
66329.0,-9.61
66339.0,-15.18
66350.0,-32.75
66360.0,-39.13
66369.0,-77.99
66379.0,-169.21
66390.0,-150.53
66400.0,54.28
66409.0,89.22
66419.0,-258.33
66429.0,-504.91
66440.0,-319.34
66449.0,-71.53
66459.0,-13.22
66469.0,22.83
66480.0,108.94
66490.0,151.95
66499.0,155.09
66509.0,191.27
66520.0,231.66
66530.0,229.72
66539.0,216.63
66549.0,217.72
66560.0,230.11
66570.0,224.72
66579.0,180.13
66589.0,142.01
66599.0,151.86
66610.0,185.05
66619.0,184.41
66629.0,133.43
66639.0,92.81
66650.0,106.34
66660.0,136.08
66669.0,150.64
66679.0,242.73
66690.0,480.61
66700.0,538.53
66709.0,109.73
66719.0,-350.2
66729.0,-277.63
66740.0,70.72
66749.0,118.07
66759.0,-132.97
66769.0,-235.96
66780.0,-99.62
66789.0,-0.81
66799.0,-14.75
66809.0,1.17
66820.0,188.02
66830.0,492.67
66839.0,497.67
66849.0,-9.09
66860.0,-482.5
66870.0,-443.95
66879.0,-213.0
66889.0,-159.19
66899.0,-148.51
66910.0,-41.02
66919.0,70.21
66929.0,64.9
66939.0,-54.28
66950.0,-109.71
66959.0,53.78
66969.0,366.85
66979.0,558.28
66990.0,395.88
67000.0,-78.54
67009.0,-451.58
67019.0,-202.94
67030.0,416.41
67040.0,563.62
67049.0,212.95
67059.0,-37.12
67069.0,-143.95
67080.0,-317.24
67089.0,-457.56
67099.0,-477.35
67109.0,-482.28
67120.0,-557.24
67130.0,-597.15
67139.0,-509.4
67149.0,-409.13
67160.0,-378.43
67170.0,-353.69
67179.0,-300.11
67189.0,-249.22
67200.0,-215.04
67210.0,-182.31
67219.0,-145.21
67229.0,-111.59
67239.0,-83.74
67250.0,34.23
67259.0,357.0
67269.0,666.9
67279.0,672.62
67290.0,534.66
67300.0,510.84
67309.0,547.72
67319.0,512.48
67330.0,420.77
67340.0,335.74
67349.0,232.99
67359.0,115.36
67369.0,69.61
67380.0,83.01
67389.0,49.43
67399.0,-21.02
67409.0,-37.71
67420.0,-8.48
67429.0,7.57
67439.0,1.06
67449.0,-30.21
67460.0,-87.75
67470.0,-127.74
67479.0,-124.64
67489.0,-129.75
67500.0,-164.27
67510.0,-167.04
67519.0,-122.18
67529.0,-99.31
67539.0,-123.2
67550.0,-135.64
67559.0,-118.69
67569.0,-103.23
67579.0,-53.14
67590.0,68.76
67599.0,184.62
67609.0,210.43
67619.0,196.76
67630.0,229.61
67640.0,257.79
67649.0,210.37
67659.0,147.79
67670.0,122.21
67680.0,102.35
67689.0,68.59
67699.0,20.32
67709.0,-48.2
67720.0,-116.03
67729.0,-182.43
67739.0,-273.78
67749.0,-364.82
67760.0,-417.09
67770.0,-423.93
67779.0,-391.92
67789.0,-359.45
67800.0,-358.95
67810.0,-360.09
67819.0,-334.52
67829.0,-295.04
67840.0,-263.4
67850.0,-282.12
67859.0,-379.74
67869.0,-461.62
67879.0,-381.89
67890.0,-180.5
67899.0,-38.76
67909.0,-6.23
67919.0,9.25
67930.0,49.58
67940.0,73.77
67949.0,67.47
67959.0,60.84
67970.0,67.31
67980.0,78.87
67989.0,89.34
67999.0,86.11
68009.0,63.28
68020.0,51.68
68029.0,78.29
68039.0,118.2
68049.0,137.96
68060.0,141.4
68069.0,148.55
68079.0,165.82
68089.0,183.61
68100.0,194.29
68110.0,204.64
68119.0,220.29
68129.0,233.73
68140.0,224.07
68150.0,181.37
68159.0,139.48
68169.0,128.82
68179.0,123.66
68190.0,99.61
68199.0,77.09
68209.0,78.56
68219.0,101.88
68230.0,124.28
68239.0,137.86
68249.0,157.7
68259.0,167.9
68270.0,147.11
68280.0,121.19
68289.0,106.4
68299.0,93.2
68310.0,90.42
68320.0,89.1
68329.0,62.36
68339.0,35.14
68349.0,48.88
68360.0,80.86
68369.0,83.25
68379.0,60.12
68389.0,39.61
68400.0,26.3
68410.0,19.56
68419.0,18.21
68429.0,24.91
68440.0,49.17
68450.0,66.13
68459.0,52.73
68469.0,37.22
68480.0,33.18
68490.0,22.49
68499.0,14.02
68509.0,22.54
68519.0,6.45
68530.0,-75.86
68539.0,-143.56
68549.0,-87.5
68559.0,22.49
68570.0,41.7
68580.0,-5.57
68589.0,-5.45
68599.0,26.38
68610.0,10.36
68620.0,-31.24
68629.0,-36.76
68639.0,-18.93
68649.0,-17.45
68660.0,-30.86
68669.0,-42.25
68679.0,-47.02
68689.0,-42.66
68700.0,-40.77
68709.0,-56.1
68719.0,-69.29
68729.0,-54.81
68740.0,-28.79
68750.0,-24.25
68759.0,-30.97
68769.0,-19.12
68780.0,-8.85
68790.0,-31.38
68799.0,-61.48
68809.0,-55.26
68819.0,-34.64
68830.0,-64.4
68839.0,-117.27
68849.0,-110.02
68859.0,-65.24
68870.0,-50.07
68879.0,-59.59
68889.0,-57.08
68899.0,-38.36
68910.0,-29.19
68920.0,-36.24
68929.0,-46.95
68939.0,-58.26
68950.0,-62.2
68960.0,-52.6
68969.0,-35.21
68979.0,-21.48
68989.0,-24.16
69000.0,-33.28
69009.0,-31.56
69019.0,-24.34
69029.0,-26.98
69040.0,-42.69
69050.0,-45.24
69059.0,-24.83
69069.0,-19.15
69080.0,-35.18
69090.0,-37.43
69099.0,-21.55
69109.0,-10.9
69120.0,-10.63
69130.0,-7.84
69139.0,-3.31
69149.0,-12.85
69159.0,-35.08
69170.0,-38.24
69179.0,-15.35
69189.0,-9.09
69199.0,-15.83
69210.0,-1.39
69220.0,7.39
69229.0,-6.83
69239.0,-21.7
69250.0,-29.32
69260.0,-24.94
69269.0,-19.53
69279.0,-23.58
69289.0,-20.67
69300.0,-3.96
69309.0,16.43
69319.0,14.35
69329.0,-15.91
69340.0,-29.8
69349.0,-8.34
69359.0,8.85
69369.0,-5.35
69380.0,-6.42
69390.0,46.38
69399.0,75.5
69409.0,5.94
69420.0,-75.43
69430.0,-49.12
69439.0,39.04
69449.0,44.62
69459.0,-21.53
69470.0,-20.23
69479.0,37.28
69489.0,45.56
69499.0,14.25
69510.0,1.38
69519.0,10.21
69529.0,19.35
69539.0,29.21
69550.0,37.93
69560.0,24.31
69569.0,2.33
69579.0,2.51
69590.0,31.87
69600.0,65.96
69609.0,60.24
69619.0,40.36
69629.0,54.93
69640.0,62.74
69649.0,42.42
69659.0,41.12
69669.0,61.44
69680.0,54.91
69690.0,14.95
69699.0,-5.97
69709.0,2.48
69720.0,1.58
69730.0,-11.3
69739.0,-40.64
69749.0,-114.1
69760.0,-262.42
69770.0,-456.24
69779.0,-497.66
69789.0,-316.79
69799.0,-142.37
69810.0,-67.78
69819.0,-59.57
69829.0,-173.14
69839.0,-263.26
69850.0,-49.22
69860.0,375.74
69869.0,467.45
69879.0,59.63
69890.0,-188.19
69900.0,48.2
69909.0,275.0
69919.0,248.52
69929.0,217.17
69940.0,271.34
69949.0,278.46
69959.0,235.97
69969.0,237.96
69980.0,269.93
69989.0,264.34
69999.0,232.77
70009.0,318.07
70020.0,553.71
70030.0,655.15
70039.0,501.33
70049.0,360.9
70060.0,352.61
70070.0,334.98
70079.0,261.57
70089.0,166.61
70099.0,-60.68
70110.0,-496.62
70119.0,-843.35
70129.0,-700.4
70139.0,-108.92
70150.0,388.58
70159.0,357.08
70169.0,1.52
70179.0,-370.35
70190.0,-701.93
70200.0,-792.81
70209.0,-607.07
70219.0,-469.5
70230.0,-376.27
70240.0,19.07
70249.0,533.77
70259.0,590.99
70269.0,259.24
70280.0,23.11
70289.0,-49.94
70299.0,-93.72
70309.0,-100.07
70320.0,-197.38
70330.0,-504.77
70339.0,-676.61
70349.0,-493.31
70360.0,-227.14
70370.0,79.11
70379.0,467.64
70389.0,617.38
70400.0,466.76
70410.0,342.25
70419.0,325.59
70429.0,269.5
70439.0,153.66
70450.0,66.1
70459.0,18.99
70469.0,-43.12
70479.0,-120.04
70490.0,-176.63
70500.0,-203.83
70509.0,-202.37
70519.0,-190.86
70530.0,-199.24
70540.0,-215.46
70549.0,-210.23
70559.0,-184.62
70569.0,-173.62
70580.0,-191.41
70589.0,-193.07
70599.0,-157.24
70609.0,-114.36
70620.0,-92.89
70629.0,-99.53
70639.0,-102.82
70649.0,-83.43
70660.0,-72.58
70670.0,-75.91
70679.0,-66.66
70689.0,-52.04
70700.0,-55.1
70710.0,-63.77
70719.0,-45.79
70729.0,-5.38
70739.0,19.53
70750.0,14.89
70759.0,8.02
70769.0,26.03
70779.0,50.42
70790.0,43.53
70799.0,13.15
70809.0,4.15
70819.0,28.86
70830.0,48.41
70840.0,45.13
70849.0,50.02
70859.0,63.51
70870.0,60.08
70880.0,48.53
70889.0,47.64
70899.0,58.83
70909.0,72.11
70920.0,84.47
70929.0,98.59
70939.0,99.38
70949.0,86.11
70960.0,80.68
70970.0,82.59
70979.0,89.21
70989.0,105.81
71000.0,127.4
71010.0,145.07
71019.0,125.9
71029.0,51.62
71040.0,-7.95
71050.0,21.12
71059.0,92.78
71069.0,191.67
71079.0,407.08
71090.0,587.93
71099.0,490.31
71109.0,269.38
71119.0,153.42
71130.0,96.88
71140.0,40.79
71149.0,-0.41
71159.0,-39.19
71170.0,-80.08
71180.0,-106.92
71189.0,-123.04
71199.0,-137.23
71209.0,-132.99
71220.0,-103.12
71229.0,-83.8
71239.0,-95.36
71249.0,-106.49
71260.0,-101.1
71269.0,-102.35
71279.0,-118.86
71289.0,-129.52
71300.0,-128.76
71310.0,-140.26
71319.0,-158.89
71329.0,-146.07
71340.0,-111.45
71350.0,-102.77
71359.0,-115.82
71369.0,-115.43
71379.0,-99.51
71390.0,-80.3
71399.0,-57.49
71409.0,-34.55
71419.0,-17.91
71430.0,-2.16
71440.0,5.08
71449.0,-11.03
71459.0,-20.51
71470.0,8.59
71480.0,28.03
71489.0,-18.23
71499.0,-90.23
71510.0,-143.9
71520.0,-206.42
71529.0,-267.23
71539.0,-277.42
71549.0,-253.56
71560.0,-231.94
71569.0,-208.13
71579.0,-168.63
71589.0,-116.48
71600.0,-71.74
71610.0,-40.53
71619.0,-11.45
71629.0,20.2
71640.0,65.76
71650.0,120.0
71659.0,107.45
71669.0,3.71
71680.0,-51.42
71690.0,9.64
71699.0,66.74
71709.0,63.82
71719.0,63.52
71730.0,86.51
71739.0,103.85
71749.0,110.0
71759.0,118.87
71770.0,134.48
71780.0,171.51
71789.0,248.68
71799.0,328.07
71810.0,370.28
71820.0,407.94
71829.0,449.99
71839.0,451.86
71849.0,416.57
71860.0,386.68
71869.0,369.31
71879.0,345.88
71889.0,312.54
71900.0,301.38
71909.0,375.39
71919.0,520.94
71929.0,600.94
71940.0,547.77
71950.0,450.49
71959.0,383.01
71969.0,327.95
71980.0,261.58
71990.0,195.81
71999.0,142.33
72009.0,94.17
72019.0,39.95
72030.0,-41.57
72039.0,-174.05
72049.0,-323.34
72059.0,-416.04
72070.0,-451.04
72079.0,-479.04
72089.0,-502.66
72099.0,-504.82
72110.0,-499.95
72120.0,-488.98
72129.0,-452.7
72139.0,-407.0
72150.0,-380.63
72160.0,-365.05
72169.0,-332.52
72179.0,-291.78
72189.0,-287.67
72200.0,-315.53
72209.0,-316.94
72219.0,-276.22
72229.0,-244.81
72240.0,-263.73
72250.0,-297.56
72259.0,-293.9
72269.0,-257.09
72280.0,-213.66
72290.0,-178.84
72299.0,-150.02
72309.0,-121.08
72320.0,-109.88
72330.0,-116.91
72339.0,-111.41
72349.0,-87.31
72359.0,-72.62
72370.0,-82.0
72379.0,-82.32
72389.0,-48.77
72399.0,-19.61
72410.0,-24.52
72420.0,-33.8
72429.0,-17.02
72439.0,12.81
72450.0,24.98
72460.0,19.37
72469.0,23.26
72479.0,40.21
72489.0,48.04
72500.0,40.96
72509.0,41.11
72519.0,55.88
72529.0,61.53
72540.0,45.59
72549.0,26.58
72559.0,32.5
72569.0,61.26
72580.0,84.44
72590.0,86.77
72599.0,64.5
72609.0,43.73
72620.0,59.21
72630.0,85.93
72639.0,100.33
72649.0,123.47
72659.0,145.48
72670.0,132.73
72679.0,96.38
72689.0,79.33
72699.0,87.38
72710.0,96.21
72719.0,102.11
72729.0,111.96
72739.0,105.41
72750.0,55.4
72760.0,8.77
72769.0,37.39
72779.0,107.36
72790.0,144.77
72800.0,128.36
72809.0,79.83
72819.0,59.88
72829.0,85.68
72840.0,101.61
72849.0,87.25
72859.0,68.98
72869.0,64.57
72880.0,73.36
72890.0,84.72
72899.0,83.9
72909.0,64.14
72920.0,51.64
72930.0,56.32
72939.0,43.49
72949.0,19.26
72960.0,28.39
72970.0,70.56
72979.0,95.85
72989.0,75.39
72999.0,42.42
73010.0,26.57
73019.0,23.8
73029.0,21.84
73039.0,14.81
73050.0,14.76
73060.0,6.02
73069.0,-21.15
73079.0,-22.2
73090.0,4.12
73100.0,11.92
73109.0,-10.01
73119.0,-33.43
73129.0,-21.8
73140.0,2.96
73149.0,-3.3
73159.0,-17.96
73169.0,-0.38
73180.0,38.5
73189.0,41.93
73199.0,10.75
73209.0,10.44
73220.0,29.5
73230.0,23.48
73239.0,7.11
73249.0,-7.61
73260.0,-24.9
73270.0,-31.44
73279.0,-11.84
73289.0,10.25
73299.0,-0.71
73310.0,-22.46
73319.0,-21.5
73329.0,-4.0
73339.0,14.25
73350.0,10.05
73359.0,-11.08
73369.0,-24.2
73379.0,-36.49
73390.0,-45.85
73400.0,-52.4
73409.0,-64.63
73419.0,-59.56
73430.0,-33.38
73440.0,-8.17
73449.0,-1.96
73459.0,-13.32
73469.0,-3.43
73480.0,16.63
73489.0,-18.36
73499.0,-85.46
73509.0,-83.95
73520.0,-17.03
73530.0,-0.28
73539.0,-32.05
73549.0,-15.1
73560.0,13.23
73570.0,-14.21
73579.0,-42.44
73589.0,-28.44
73600.0,-17.76
73610.0,-37.95
73619.0,-41.44
73629.0,-7.76
73639.0,8.62
73650.0,-7.39
73659.0,-22.92
73669.0,-27.73
73679.0,-20.27
73690.0,-13.73
73700.0,-20.67
73709.0,-32.58
73719.0,-42.77
73730.0,-39.4
73740.0,-26.35
73749.0,-20.82
73759.0,-18.69
73769.0,-18.01
73780.0,-18.82
73789.0,-19.19
73799.0,-24.17
73809.0,-26.62
73820.0,-29.63
73829.0,-39.97
73839.0,-43.26
73849.0,-34.13
73860.0,-15.84
73870.0,0.45
73879.0,7.42
73889.0,8.76
73900.0,-3.11
73910.0,-7.24
73919.0,10.96
73929.0,11.21
73939.0,-3.58
73950.0,11.92
73959.0,50.57
73969.0,78.41
73979.0,84.33
73990.0,76.17
73999.0,57.94
74009.0,28.42
74019.0,-4.15
74030.0,-22.63
74040.0,-15.4
74049.0,-2.15
74059.0,2.95
74070.0,18.76
74080.0,22.77
74089.0,-9.66
74099.0,-29.14
74109.0,-9.29
74120.0,8.04
74129.0,-9.09
74139.0,-38.34
74149.0,-34.99
74160.0,-5.84
74170.0,9.45
74179.0,-5.96
74189.0,-34.54
74200.0,-35.37
74210.0,-21.06
74219.0,-32.58
74229.0,-43.1
74240.0,-22.56
74250.0,7.07
74259.0,18.94
74269.0,13.47
74279.0,5.33
74290.0,-8.06
74299.0,-7.88
74309.0,28.29
74319.0,32.17
74330.0,-36.54
74340.0,-67.1
74349.0,11.24
74359.0,87.15
74370.0,69.62
74380.0,34.68
74389.0,38.01
74399.0,30.55
74409.0,1.95
74420.0,-8.66
74429.0,13.05
74439.0,41.57
74449.0,49.39
74460.0,54.73
74469.0,57.21
74479.0,11.27
74489.0,-59.9
74500.0,-70.08
74510.0,-8.41
74519.0,42.98
74529.0,38.51
74540.0,15.9
74550.0,14.18
74559.0,40.79
74569.0,75.37
74579.0,81.33
74590.0,57.25
74599.0,35.36
74609.0,31.7
74619.0,36.35
74630.0,26.03
74639.0,-3.77
74649.0,-25.52
74659.0,-23.91
74670.0,-12.65
74680.0,2.29
74689.0,21.33
74699.0,21.9
74710.0,4.7
74720.0,4.4
74729.0,14.4
74739.0,15.66
74749.0,20.13
74760.0,18.8
74769.0,5.09
74779.0,1.9
74789.0,5.21
74800.0,5.15
74810.0,13.54
74819.0,18.78
74829.0,7.14
74840.0,-0.48
74850.0,8.28
74859.0,20.47
74869.0,27.06
74880.0,18.87
74890.0,-3.4
74899.0,-14.5
74909.0,-18.94
74919.0,-34.94
74930.0,-29.7
74939.0,-4.29
74949.0,-20.09
74959.0,-58.16
74970.0,-53.17
74980.0,-29.96
74989.0,-32.68
74999.0,-41.41
75010.0,-33.08
75020.0,-13.4
75029.0,5.54
75039.0,8.9
75049.0,-6.8
75060.0,-18.44
75069.0,-17.3
75079.0,-30.14
75089.0,-56.62
75100.0,-57.3
75109.0,-30.82
75119.0,-19.05
75129.0,-32.23
75140.0,-44.72
75150.0,-40.87
75159.0,-22.32
75169.0,6.04
75180.0,43.65
75190.0,57.44
75199.0,2.03
75209.0,-66.26
75219.0,-53.65
75230.0,-0.48
75239.0,0.55
75249.0,-36.42
75259.0,-44.28
75270.0,-11.89
75279.0,12.96
75289.0,3.21
75299.0,-7.19
75310.0,1.92
75320.0,13.0
75329.0,30.39
75339.0,78.63
75350.0,129.15
75360.0,103.97
75369.0,16.5
75379.0,-33.81
75389.0,-39.59
75400.0,-60.78
75409.0,-83.38
75419.0,-62.69
75429.0,-21.79
75440.0,-8.07
75450.0,-14.61
75459.0,-8.32
75469.0,6.71
75480.0,6.03
75490.0,-7.73
75499.0,-20.83
75509.0,-36.77
75520.0,-49.58
75530.0,-48.56
75539.0,-44.32
75549.0,-39.06
75559.0,-22.56
75570.0,-4.94
75579.0,-3.99
75589.0,-3.18
75599.0,46.4
75610.0,151.8
75620.0,243.93
75629.0,260.52
75639.0,229.9
75650.0,221.03
75660.0,234.94
75669.0,221.21
75679.0,165.81
75689.0,99.65
75700.0,58.5
75709.0,40.08
75719.0,0.96
75729.0,-61.05
75740.0,-89.59
75749.0,-78.35
75759.0,-84.25
75769.0,-121.07
75780.0,-144.03
75790.0,-138.4
75799.0,-144.33
75809.0,-175.54
75820.0,-195.73
75830.0,-195.91
75839.0,-199.33
75849.0,-196.61
75859.0,-164.35
75870.0,-125.01
75879.0,-113.41
75889.0,-123.69
75899.0,-125.65
75910.0,-100.77
75919.0,-66.6
75929.0,-51.61
75939.0,-66.31
75950.0,-111.69
75960.0,-155.96
75969.0,-147.05
75979.0,-89.7
75990.0,-42.39
76000.0,-43.76
76009.0,-61.65
76019.0,-43.22
76029.0,-6.28
76040.0,7.6
76049.0,7.38
76059.0,18.41
76069.0,40.01
76080.0,40.68
76090.0,17.14
76099.0,13.86
76109.0,29.34
76120.0,32.1
76130.0,37.91
76139.0,54.13
76149.0,62.2
76160.0,69.88
76170.0,80.83
76179.0,72.59
76189.0,51.53
76199.0,52.49
76210.0,72.65
76219.0,72.19
76229.0,41.9
76239.0,22.14
76250.0,16.18
76260.0,-55.69
76269.0,-197.32
76279.0,-292.24
76290.0,-311.2
76300.0,-298.1
76309.0,-259.07
76319.0,-209.32
76329.0,-165.4
76340.0,-125.77
76349.0,-88.77
76359.0,-29.95
76369.0,70.2
76380.0,171.73
76389.0,259.93
76399.0,350.45
76409.0,400.85
76420.0,402.3
76430.0,409.16
76439.0,422.34
76449.0,407.8
76460.0,350.66
76470.0,222.16
76479.0,56.15
76489.0,-4.76
76499.0,97.4
76510.0,235.15
76519.0,285.43
76529.0,279.2
76539.0,268.83
76550.0,231.36
76559.0,130.93
76569.0,-8.16
76579.0,15.75
76590.0,258.34
76600.0,352.33
76609.0,204.07
76619.0,172.3
76630.0,275.54
76640.0,245.02
76649.0,111.65
76659.0,57.82
76669.0,70.95
76680.0,57.44
76689.0,-2.09
76699.0,-181.49
76709.0,-440.55
76720.0,-359.79
76730.0,125.13
76739.0,346.67
76749.0,112.97
76760.0,-10.93
76770.0,119.62
76779.0,155.02
76789.0,29.62
76800.0,-77.53
76810.0,-106.83
76819.0,-103.65
76829.0,-126.09
76839.0,-167.23
76850.0,-164.21
76859.0,-140.04
76869.0,-172.38
76879.0,-280.16
76890.0,-378.09
76900.0,-305.48
76909.0,-82.36
76919.0,34.02
76930.0,-40.55
76940.0,-115.07
76949.0,-102.73
76959.0,-97.95
76969.0,-132.64
76980.0,-156.18
76989.0,-153.91
76999.0,-147.85
77009.0,-150.73
77020.0,-150.05
77029.0,-142.63
77039.0,-142.14
77049.0,-148.8
77060.0,-172.09
77070.0,-197.74
77079.0,-178.13
77089.0,-125.72
77100.0,-93.14
77110.0,-97.45
77119.0,-115.33
77129.0,-118.38
77139.0,-117.09
77150.0,-126.82
77159.0,-167.28
77169.0,-228.53
77179.0,-195.49
77190.0,-111.23
77199.0,-189.1
77209.0,-297.62
77219.0,-144.18
77230.0,117.53
77240.0,194.14
77249.0,173.93
77259.0,212.91
77270.0,213.2
77280.0,121.36
77289.0,48.4
77299.0,35.94
77309.0,35.12
77320.0,16.22
77329.0,-7.65
77339.0,0.12
77349.0,6.29
77360.0,-55.16
77370.0,-138.8
77379.0,-150.99
77389.0,-68.98
77400.0,48.64
