Time (ms),Filtered Voltage (V)
0.0,0.015925354520086976
10.0,0.19151320953724754
19.0,1.1056135260983873
29.0,4.118909694454858
39.0,11.263144661573525
50.0,24.43995647113638
59.0,44.476980460235325
69.0,70.75879389227923
79.0,101.45730686588173
90.0,133.92987277646125
100.0,165.09983065069608
109.0,191.88059608916564
119.0,211.59838447572872
130.0,222.2784066877303
140.0,222.7557290992074
149.0,212.6717053450503
159.0,192.42357020872046
169.0,163.09407092061255
180.0,126.35775811452895
189.0,84.36544876740008
199.0,39.61145785668744
209.0,-5.246454067493481
220.0,-47.65316075180832
229.0,-85.46666272572531
239.0,-117.19806559388314
249.0,-142.11064673582604
260.0,-160.1960350233898
270.0,-172.06472103371004
279.0,-178.76471905110907
289.0,-181.554392191196
300.0,-181.69532875679278
310.0,-180.3157128382645
319.0,-178.3153611433534
329.0,-176.27461384221135
339.0,-174.4410432020344
350.0,-172.88359558980292
359.0,-171.70092497375865
369.0,-171.06500817333605
379.0,-171.08616851045684
390.0,-171.66823833318358
399.0,-172.45213285006554
409.0,-172.85222114358106
419.0,-172.18072671784773
430.0,-169.80831180182864
440.0,-165.2777469113554
449.0,-158.36182301264284
459.0,-149.10093411490504
470.0,-137.7998359003157
480.0,-124.96148466532634
489.0,-111.2086905068029
499.0,-97.22135944376434
509.0,-83.63417323115219
520.0,-70.89416660235315
529.0,-59.198916687333494
539.0,-48.58583846426785
549.0,-39.06734013841134
560.0,-30.661023110166337
570.0,-23.304600495155533
579.0,-16.784399805889006
589.0,-10.783084534932145
600.0,-5.008945546548836
610.0,0.7172673739824477
619.0,6.480589271779897
629.0,12.34892615021456
640.0,18.43608359213409
650.0,24.91378081623841
659.0,31.957908748012215
669.0,39.63973254022191
679.0,47.83324036545371
690.0,56.23896658022354
699.0,64.54330652693434
709.0,72.59685573112438
719.0,80.44728953108869
730.0,88.15709766585007
740.0,95.52848481289469
749.0,102.00789362867856
759.0,106.93036319896714
770.0,109.92188415399063
780.0,111.11331438597824
789.0,111.02905404860279
799.0,110.29515470379619
809.0,109.39048910158277
820.0,108.57763637577249
829.0,107.98905559898768
839.0,107.71376506393071
849.0,107.77535889265683
860.0,108.0599250896588
869.0,108.31520971622695
879.0,108.24172328426505
889.0,107.59433416851373
900.0,106.23308093156594
910.0,104.13452597528641
919.0,101.37942546344571
929.0,98.11250327758378
940.0,94.51607272598419
950.0,90.84876189671547
959.0,87.48501014870452
969.0,84.85042286705111
979.0,83.29446701277409
990.0,83.01334179701053
999.0,84.02889021355719
1009.0,86.18494380784806
1019.0,89.17412082604041
1030.0,92.57865594010728
1039.0,95.85720722028721
1049.0,98.30247659736928
1059.0,99.11343704625028
1070.0,97.62718598659983
1080.0,93.54442555921321
1089.0,86.98604754021031
1099.0,78.41574945743386
1110.0,68.53633132729487
1120.0,58.16521557397137
1129.0,48.06753221820359
1139.0,38.81510068763657
1149.0,30.758335112664287
1160.0,24.1145319312983
1169.0,19.07388713015896
1179.0,15.78279688557294
1189.0,14.193122518435155
1200.0,13.959431187459993
1210.0,14.531289826835078
1219.0,15.35669328832654
1229.0,16.018189341464858
1240.0,16.246809085916276
1250.0,15.874803790418202
1259.0,14.788633342423637
1269.0,12.911610465962694
1280.0,10.225392408951297
1290.0,6.816367394627943
1299.0,2.900805902312405
1309.0,-1.2235639824037599
1319.0,-5.2870979594819
1330.0,-9.134464558447313
1339.0,-12.71940258862025
1349.0,-16.026238754158772
1359.0,-19.010568579912995
1370.0,-21.630567296711526
1380.0,-23.93230233112645
1389.0,-26.095303886911893
1399.0,-28.40274261371503
1410.0,-31.166335870702486
1420.0,-34.639842232900826
1429.0,-38.95303485220403
1439.0,-44.09258780965632
1449.0,-49.91340535007969
1460.0,-56.156426313840754
1469.0,-62.48628168139687
1479.0,-68.54566917025961
1489.0,-73.98485435193638
1500.0,-78.45923511093594
1509.0,-81.64831325524099
1519.0,-83.32719074746915
1529.0,-83.43527966621474
1540.0,-82.07457370101837
1550.0,-79.45672292747082
1559.0,-75.86288325426753
1569.0,-71.63072470069633
1580.0,-67.14412162560822
1590.0,-62.81467435434363
1599.0,-59.0460468000046
1609.0,-56.17578705090633
1619.0,-54.44474000768114
1630.0,-54.06395894012246
1639.0,-55.35247039218769
1649.0,-58.810753204412215
1659.0,-65.0359149394869
1670.0,-74.54593796143388
1679.0,-87.61013775640194
1689.0,-104.05884477485283
1699.0,-123.09385286563433
1710.0,-143.2798845588557
1720.0,-162.7565345502424
1729.0,-179.46480949766735
1739.0,-191.30499362971148
1750.0,-196.3750435909147
1760.0,-193.31347857552328
1769.0,-181.54222997084713
1779.0,-161.28488160279016
1789.0,-133.43919363910874
1800.0,-99.40896031491
1809.0,-60.929624052604304
1819.0,-19.89816305779579
1829.0,21.784747109044186
1840.0,62.34907675537806
1850.0,100.2316265015103
1859.0,134.08896031252516
1869.0,162.82384636676227
1880.0,185.6766478081197
1890.0,202.30711475206803
1899.0,212.7777883638997
1909.0,217.47163158353567
1920.0,217.03194583827997
1930.0,212.32319388727143
1939.0,204.32904528792844
1949.0,193.96231489723806
1959.0,181.88521820902736
1970.0,168.4597033555456
1979.0,153.84244377117957
1989.0,138.16776744157886
1999.0,121.79108753435423
2010.0,105.54571295271303
2020.0,90.85732940480833
2029.0,79.5551756567739
2039.0,73.41308058053689
2050.0,73.64804427410637
2060.0,80.57505274942922
2069.0,93.4659275466794
2079.0,110.60310105497868
2089.0,129.51977218809168
2100.0,147.3637828497339
2109.0,161.25709132427244
2119.0,168.5428355813314
2129.0,166.92095929867546
2140.0,154.54759443982442
2149.0,130.1480366396816
2159.0,93.16832741125431
2169.0,43.982756571478184
2180.0,-15.913145180964507
2190.0,-83.88420351704501
2199.0,-156.39212356888387
2209.0,-229.3991219735793
2220.0,-298.8159141625709
2230.0,-360.93433373301764
2239.0,-412.7748576895981
2249.0,-452.26443946337736
2259.0,-478.26117126139525
2270.0,-490.5240367306192
2279.0,-489.649819731623
2289.0,-476.91510005709074
2299.0,-454.0364315422833
2310.0,-422.9597827585943
2319.0,-385.73093403179024
2329.0,-344.390163931016
2339.0,-300.8565185289809
2350.0,-256.8495777369731
2360.0,-213.86708815704128
2369.0,-173.1515562021524
2379.0,-135.62308416283497
2390.0,-101.85867737970149
2400.0,-72.14468804441955
2409.0,-46.50094917941096
2419.0,-24.635497308148377
2429.0,-5.985310097248459
2440.0,10.026020229970808
2449.0,23.71275055221653
2459.0,35.19146026775606
2469.0,44.757924150859544
2480.0,53.108951935563816
2490.0,61.1408502551485
2499.0,69.60184211829859
2509.0,78.96337879896619
2520.0,89.48914405983734
2530.0,101.26331277930043
2539.0,114.12043690028734
2549.0,127.61423060859171
2560.0,141.10466927372187
2570.0,153.91048605878188
2579.0,165.43928180562546
2589.0,175.22644684169757
2599.0,182.8806561430293
2610.0,188.03846946632476
2619.0,190.42557364679814
2629.0,189.97844831643064
2639.0,186.89621810524534
2650.0,181.571451651051
2660.0,174.47214722052217
2669.0,166.0763893432405
2679.0,156.87489492415457
2690.0,147.3750448061973
2700.0,138.07220846990177
2709.0,129.40909060123244
2719.0,121.72885928379536
2729.0,115.22912750962732
2740.0,109.95695431441386
2749.0,105.85110025669344
2759.0,102.778866424128
2769.0,100.53985523913065
2780.0,98.86664953878763
2789.0,97.43276286972355
2799.0,95.83567417705761
2809.0,93.57484101867625
2820.0,90.11294296002087
2830.0,85.04789014925599
2839.0,78.29887204161741
2849.0,70.17770316803451
2860.0,61.30512613188274
2870.0,52.44696729374392
2879.0,44.36001765218957
2889.0,37.657244675896614
2899.0,32.68910928354633
2910.0,29.504722373974683
2919.0,27.92296772460263
2929.0,27.632676381547885
2939.0,28.24879143015611
2950.0,29.340589542928935
2959.0,30.462651107525648
2969.0,31.19260738874986
2979.0,31.18107754862993
2990.0,30.211688510904892
3000.0,28.240210265721075
3009.0,25.373797422786534
3019.0,21.792631082952894
3030.0,17.682570790314536
3040.0,13.24722376707616
3049.0,8.772022165079939
3059.0,4.645392709448967
3069.0,1.2806702026209702
3080.0,-1.0441938875645573
3089.0,-2.3477488568620903
3099.0,-2.9884230887835916
3109.0,-3.5455176560248045
3120.0,-4.641328543592966
3130.0,-6.823360040859412
3139.0,-10.485505313788893
3149.0,-15.761703803819877
3160.0,-22.444221630784686
3170.0,-30.02022728907578
3179.0,-37.810631428428174
3189.0,-45.12125512293511
3200.0,-51.34459545939391
3210.0,-56.01257738616593
3219.0,-58.849968953374656
3229.0,-59.848337992960154
3239.0,-59.2914636383281
3250.0,-57.67231968707572
3259.0,-55.553396011463455
3269.0,-53.448111638069506
3279.0,-51.72685461995621
3290.0,-50.54840516805025
3300.0,-49.87027435459741
3309.0,-49.537821256959674
3319.0,-49.35650551226607
3330.0,-49.08997503320536
3340.0,-48.435112305728865
3349.0,-47.06613375360451
3359.0,-44.802774651166814
3369.0,-41.810965428418754
3380.0,-38.59111078580153
3389.0,-35.673839763288505
3399.0,-33.32722623941813
3409.0,-31.582738498606727
3420.0,-30.460326986736472
3429.0,-30.075173902133503
3439.0,-30.551799150713183
3449.0,-31.887939557147828
3460.0,-33.87340302713339
3470.0,-36.08936739377895
3479.0,-37.99406351754025
3489.0,-39.06989675446828
3500.0,-38.98029660546799
3510.0,-37.68763419330785
3519.0,-35.4668102151032
3529.0,-32.76708318127149
3539.0,-30.008081409239452
3550.0,-27.47719799378588
3559.0,-25.355643973501124
3569.0,-23.748486097848907
3579.0,-22.66626175046784
3590.0,-22.027925600406522
3599.0,-21.705701238674276
3609.0,-21.544888752838183
3619.0,-21.338943605388337
3630.0,-20.829840313264885
3640.0,-19.7895619911934
3649.0,-18.138576584248653
3659.0,-16.003273745054766
3670.0,-13.679848596437328
3680.0,-11.558607277883864
3689.0,-10.05162191131407
3699.0,-9.507176689919437
3709.0,-10.09670947764861
3720.0,-11.727964917715278
3729.0,-14.068153758722136
3739.0,-16.676070560343963
3749.0,-19.13750926314355
3760.0,-21.116764391789122
3770.0,-22.337434874487585
3779.0,-22.561480338779294
3789.0,-21.61614676238462
3800.0,-19.44549381118018
3810.0,-16.10610493568391
3819.0,-11.697222997876242
3829.0,-6.331891383820216
3840.0,-0.19244537456228253
3850.0,6.434598494568277
3859.0,13.20199891096971
3869.0,19.753722714989685
3879.0,25.75636164517564
3890.0,30.9387027719328
3899.0,35.09409635937485
3909.0,38.01086661475851
3919.0,39.43908789181336
3930.0,39.19150549927019
3940.0,37.29968697169674
3949.0,34.07938696952934
3959.0,30.04178333419506
3970.0,25.70417370810432
3980.0,21.44779650307134
3989.0,17.51475608697801
3999.0,14.05326036370541
4009.0,11.104990299539985
4020.0,8.588741770218487
4029.0,6.353958947963235
4039.0,4.26105346057618
4049.0,2.228149389413201
4060.0,0.24664484845813087
4069.0,-1.607314455670592
4079.0,-3.148736279034798
4089.0,-4.065366707745102
4100.0,-3.965421840675817
4110.0,-2.51248904716107
4119.0,0.44907746777712443
4129.0,4.871359263404069
4140.0,10.513482415888921
4150.0,16.89402383094985
4159.0,23.277040096419835
4169.0,28.818030146835465
4179.0,32.79318871780054
4190.0,34.74940365214744
4199.0,34.55641704625433
4209.0,32.42535197055714
4219.0,28.886365243797258
4230.0,24.675943360776127
4239.0,20.51562525288788
4249.0,16.848054145428193
4259.0,13.720734480889611
4270.0,10.958525255991614
4280.0,8.468799824707418
4289.0,6.374578443264334
4299.0,4.908100456749285
4310.0,4.243068601822608
4320.0,4.395200945545514
4329.0,5.211395703976042
4339.0,6.462025889277955
4349.0,7.984803206821229
4360.0,9.731181079321274
4369.0,11.661362699142577
4379.0,13.630067223729752
4389.0,15.398673754928906
4400.0,16.732418495172023
4410.0,17.47735756633434
4419.0,17.58431893546963
4429.0,17.098035931778647
4440.0,16.142817060192204
4450.0,14.930872311194047
4459.0,13.772729055038369
4469.0,13.037870911113659
4480.0,13.060264129664379
4490.0,14.046277459327754
4499.0,16.037909068158
4509.0,18.92727279575083
4519.0,22.47291299065784
4530.0,26.291450163285408
4539.0,29.874125979591625
4549.0,32.67771166503298
4559.0,34.23069969096184
4570.0,34.157826186556754
4580.0,32.15098997614098
4589.0,28.009325501686416
4599.0,21.755094107653644
4610.0,13.691816137853968
4620.0,4.3531529368490895
4629.0,-5.5792636656059065
4639.0,-15.353028922982503
4649.0,-24.23501663735842
4660.0,-31.596190728412978
4669.0,-37.01554554254259
4679.0,-40.499853705786435
4689.0,-42.759681632569105
4700.0,-45.240304653443786
4709.0,-49.709613677412165
4719.0,-57.60175349267317
4729.0,-69.50732536644362
4740.0,-85.0108405747571
4750.0,-102.8181534243878
4759.0,-121.04978545534689
4769.0,-137.60702875345675
4780.0,-150.510365421525
4790.0,-158.11372188679167
4799.0,-159.17895902584274
4809.0,-152.9020731395347
4819.0,-138.99250747596184
4830.0,-117.78202888234915
4839.0,-90.23969431454579
4849.0,-57.831541111092065
4859.0,-22.288649674989493
4870.0,14.626110798195086
4879.0,51.319587043154705
4889.0,86.51332434552967
4899.0,119.27268401987864
4910.0,148.91440098465085
4920.0,174.88799049330296
4929.0,196.71120055144627
4939.0,213.94954175735327
4950.0,226.23097339565376
4960.0,233.32056063557806
4969.0,235.21088411058923
4979.0,232.14458544639538
4989.0,224.57604569777402
5000.0,213.11720757052404
5009.0,198.45634730675846
5019.0,181.2599845381894
5029.0,162.13134187898328
5040.0,141.6421642339493
5050.0,120.3567257824592
5059.0,98.80708643413514
5069.0,77.51157324346296
5080.0,57.16434667141111
5090.0,38.945254118413246
5099.0,24.635727492563454
5109.0,16.276258919858545
5120.0,15.51364892566565
5130.0,23.021327559185554
5139.0,38.214697400872005
5149.0,59.27653517109153
5159.0,83.41676965505378
5170.0,107.24415928001011
5179.0,127.15725469606515
5189.0,139.73743594465506
5199.0,142.12373913782395
5210.0,132.29575889164443
5220.0,109.21194177511741
5229.0,72.84513301978083
5239.0,24.19611561256079
5250.0,-34.708131800628834
5260.0,-100.90051156344032
5269.0,-170.70148726985897
5279.0,-240.0882274693521
5289.0,-305.13000506488703
5300.0,-362.3563133984374
5309.0,-408.9828077522775
5319.0,-443.0514907917707
5329.0,-463.5564679352693
5340.0,-470.50025222750685
5349.0,-464.7612689074049
5359.0,-447.80080457494194
5369.0,-421.42240022242817
5380.0,-387.7150322067951
5390.0,-349.0385310204824
5399.0,-307.84169500341744
5409.0,-266.3362395386096
5420.0,-226.23914597985467
5430.0,-188.71104126736986
5439.0,-154.43060162665986
5449.0,-123.69233390329639
5459.0,-96.49466081531735
5470.0,-72.63715488595395
5479.0,-51.818958656461376
5489.0,-33.72736771396192
5499.0,-18.114655560194066
5510.0,-4.808595718440641
5519.0,6.3773435535575045
5529.0,15.72988206221455
5539.0,23.60927794503034
5550.0,30.37270850079297
5560.0,36.37022710842994
5569.0,42.00801580896332
5579.0,47.77898542195478
5590.0,54.20908551081479
5600.0,61.750938848985705
5609.0,70.67124463826251
5619.0,80.958242235867
5629.0,92.29503316530248
5640.0,104.14853438778658
5649.0,115.9284577142084
5659.0,127.1005116016231
5669.0,137.22253581821218
5680.0,145.96574889368256
5690.0,153.14037157684007
5699.0,158.68379623076726
5709.0,162.6148310253501
5720.0,165.00915824357912
5730.0,165.99698346697684
5739.0,165.72914672422868
5749.0,164.3241300655928
5760.0,161.88175183119995
5770.0,158.5705630094166
5779.0,154.65790525102335
5789.0,150.37938100482097
5799.0,145.74582903693397
5810.0,140.50605690811645
5819.0,134.33438001192474
5829.0,127.0661031339094
5839.0,118.79106762311605
5850.0,109.81232752850981
5860.0,100.57924131708234
5869.0,91.64229489024076
5879.0,83.59561519345175
5890.0,76.9644372376531
5900.0,72.08896946669906
5909.0,69.11560473398369
5919.0,68.050943154996
5929.0,68.68613327099179
5940.0,70.40304360242362
5949.0,72.16911204646662
5959.0,72.87868290647982
5969.0,71.76948331301787
5980.0,68.5772179617057
5989.0,63.42494619553753
5999.0,56.649626144744396
6009.0,48.681493192673564
6020.0,39.9760404314389
6030.0,30.9769191215187
6039.0,22.09435435096723
6049.0,13.691746891610297
6060.0,6.07222297272137
6070.0,-0.557250240806912
6079.0,-6.131129684267584
6089.0,-10.711435652667468
6099.0,-14.40708074620818
6110.0,-17.323069981618797
6119.0,-19.58080397160412
6129.0,-21.331816551368174
6139.0,-22.72426028238482
6150.0,-23.871863812433507
6159.0,-24.855589572678067
6169.0,-25.749891814580486
6179.0,-26.654325932472915
6190.0,-27.675499120373527
6200.0,-28.849845250236218
6209.0,-30.122928395883704
6219.0,-31.456863789745544
6230.0,-32.953225047329994
6240.0,-34.871614469331696
6249.0,-37.567477141779094
6259.0,-41.39280454614658
6269.0,-46.53830408542177
6280.0,-52.840732547505475
6289.0,-59.68864038476657
6299.0,-66.15414047670268
6309.0,-71.30524992919824
6320.0,-74.48480216440889
6330.0,-75.40162604278298
6339.0,-74.08874080767345
6349.0,-70.8518243847948
6360.0,-66.22455372821611
6370.0,-60.87897091358372
6379.0,-55.49070248307306
6389.0,-50.619233394109365
6400.0,-46.646140833583644
6410.0,-43.7575969605435
6419.0,-41.943123408447526
6429.0,-41.02425875695775
6439.0,-40.73637033314677
6450.0,-40.81905428905439
6459.0,-41.054922654412756
6469.0,-41.288309057685645
6479.0,-41.46999415144278
6490.0,-41.67460871964498
6500.0,-42.03956259953477
6509.0,-42.67982809562286
6519.0,-43.63707623124565
6530.0,-44.85069038499222
6540.0,-46.1448265197814
6549.0,-47.25897074481436
6559.0,-47.9171332211323
6569.0,-47.90634988102876
6580.0,-47.154744644124186
6589.0,-45.77512919923412
6599.0,-44.00739160662382
6609.0,-42.07292505558671
6620.0,-40.05733650876185
6629.0,-37.89494657508253
6639.0,-35.41688146140954
6649.0,-32.41522190921424
6660.0,-28.726197197388206
6670.0,-24.31591938194494
6679.0,-19.310304138744712
6689.0,-13.945427345186815
6700.0,-8.469134918110143
6710.0,-3.0402432619221695
6719.0,2.3107122768512527
6729.0,7.605944991415147
6739.0,12.772928633143383
6750.0,17.551809818446056
6759.0,21.54311211813646
6769.0,24.360706354103037
6779.0,25.77690255909177
6790.0,25.779724461170456
6799.0,24.558076651880825
6809.0,22.46267172811209
6819.0,19.942265191061566
6830.0,17.450744422172374
6840.0,15.388704199340834
6849.0,14.117810658412441
6859.0,13.927233994463077
6870.0,14.839953216328835
6880.0,16.444279861443643
6889.0,18.04011847735593
6899.0,19.01458556979875
6909.0,19.072672386529703
6920.0,18.19151234808394
6929.0,16.49152939413517
6939.0,14.171520877169245
6949.0,11.478193702644349
6960.0,8.672220352485224
6970.0,6.0136519485066415
6979.0,3.778957117319115
6989.0,2.270761117981548
7000.0,1.768511673762301
7010.0,2.426861245448142
7019.0,4.179302769686996
7029.0,6.670790229881178
7040.0,9.25046648721863
7050.0,11.151394888504422
7059.0,11.876523994951267
7069.0,11.489574361059447
7079.0,10.526503364629628
7090.0,9.681333594721028
7099.0,9.599234299610199
7109.0,10.815491886299265
7119.0,13.679733636191715
7130.0,18.251371442907775
7140.0,24.27534146746892
7149.0,31.253661368500417
7159.0,38.54425551668376
7170.0,45.45626515153484
7180.0,51.330879289540256
7189.0,55.57920442597877
7199.0,57.69710157030606
7209.0,57.32667500194913
7220.0,54.36257003201259
7229.0,49.00204064733704
7239.0,41.67901459036802
7249.0,32.948640917802486
7260.0,23.412047841705597
7269.0,13.678183042570117
7279.0,4.31741957529173
7289.0,-4.1792803016161075
7300.0,-11.409786418536903
7310.0,-17.07474247445949
7319.0,-21.00860102520915
7329.0,-23.17075462679464
7340.0,-23.5951987785087
7350.0,-22.377450773666496
7359.0,-19.720759282583163
7369.0,-15.977873272394463
7379.0,-11.633475139476738
7390.0,-7.221132837372702
7399.0,-3.2097780055076988
7409.0,0.07831093314857121
7419.0,2.484193005784526
7430.0,3.9909242453827924
7439.0,4.700640951472574
7449.0,4.800480153684706
7459.0,4.496800783565496
7470.0,3.965388996690775
7480.0,3.3861393720477353
7489.0,2.999339718557298
7499.0,3.0443274845408927
7510.0,3.6100077625842917
7520.0,4.580811857251829
7529.0,5.732617372755117
7539.0,6.851334244288725
7549.0,7.7960677224567005
7560.0,8.542070105333512
7569.0,9.184619278146794
7579.0,9.821303405213625
7589.0,10.365102958822582
7600.0,10.483581073216518
7610.0,9.73902086763143
7619.0,7.793192635437081
7629.0,4.546050527962372
7640.0,0.18997964403850293
7650.0,-4.8338193015046915
7659.0,-9.987157640174125
7669.0,-14.802373975604054
7680.0,-18.93967818439248
7690.0,-22.160751974413934
7699.0,-24.379724446888215
7709.0,-25.85619019525232
7719.0,-27.390843156209474
7730.0,-30.301048816267745
7739.0,-36.06177921968509
7749.0,-45.757900260172974
7759.0,-59.687634140605816
7770.0,-77.31786860138376
7780.0,-97.45905461392448
7789.0,-118.42925415540257
7799.0,-138.18932113381615
7810.0,-154.57703160735542
7820.0,-165.63849900081703
7829.0,-169.90549381633573
7839.0,-166.51197991587435
7849.0,-155.1654721980292
7860.0,-136.0643890446108
7869.0,-109.84454696600967
7879.0,-77.53148915671453
7889.0,-40.42517216548462
7900.0,0.04413692233162898
7909.0,42.385876113792904
7919.0,85.04696830137597
7929.0,126.42616292642836
7940.0,164.96653197340842
7950.0,199.31552829244566
7959.0,228.4584647329891
7969.0,251.71435660082915
7980.0,268.6263328752946
7990.0,278.9288701296341
7999.0,282.6773955708647
8009.0,280.389805331862
8019.0,273.00704550522664
8030.0,261.6567837486297
8039.0,247.37020128816658
8049.0,230.91738178202232
8059.0,212.80169623325486
8070.0,193.33329663093355
8079.0,172.71456148851877
8089.0,151.12100858722476
8099.0,128.7475133011332
8110.0,105.8334806558611
8120.0,82.79557101092668
8129.0,60.50493945980049
8139.0,40.449666481342405
8150.0,24.495413259354986
8160.0,14.329455832619264
8169.0,10.935439532274152
8179.0,14.305460727235229
8189.0,23.38575716135245
8200.0,36.22482335421326
8209.0,50.268311145067855
8219.0,62.669442041587196
8229.0,70.54739282205497
8240.0,71.25983366240368
8250.0,62.728430997940436
8259.0,43.731476102741695
8269.0,14.049941691814222
8280.0,-25.57245754262511
8290.0,-73.58846684052124
8299.0,-127.78066548501386
8309.0,-185.30322072649665
8320.0,-242.7815394359134
8330.0,-296.6429436021297
8339.0,-343.59030434465706
8349.0,-380.9893108453856
8359.0,-407.10199708314855
8370.0,-421.22799536731986
8379.0,-423.7270840934377
8389.0,-415.8334756924569
8399.0,-399.3025464102058
8410.0,-376.0800827672207
8420.0,-348.13083183787774
8429.0,-317.3622615666778
8439.0,-285.5073253383721
8450.0,-253.97218845572255
8460.0,-223.74535410113745
8469.0,-195.36988247312868
8479.0,-168.9222844514105
8489.0,-144.03186846467148
8500.0,-120.04273468850855
8509.0,-96.33094923865795
8519.0,-72.62190105239326
8529.0,-49.11754511208727
8540.0,-26.408333954135596
8549.0,-5.300801586773732
8559.0,13.352313401902148
8569.0,28.847520259185206
8580.0,40.84283532592253
8590.0,49.45091567069012
8599.0,55.08081235216027
8609.0,58.10404484762343
8620.0,58.668146718808366
8630.0,56.91028654145356
8639.0,53.36088472804331
8649.0,49.06260793615377
8659.0,45.296824775349194
8670.0,43.25351363250096
8679.0,43.8634796506789
8689.0,47.69456519431721
8699.0,54.85579684944193
8710.0,65.0095983362344
8719.0,77.50412992862557
8729.0,91.51097363195541
8739.0,106.10252596551719
8750.0,120.30913210585703
8760.0,133.21813869585773
8769.0,144.10758635761195
8779.0,152.53070852660744
8790.0,158.30594088116015
8800.0,161.48464788568575
8809.0,162.3500906116352
8819.0,161.37045878994323
8829.0,159.06917238816635
8840.0,155.92103602614216
8849.0,152.32381708606596
8859.0,148.54349477970936
8869.0,144.58279618350227
8880.0,140.08720515428732
8890.0,134.4324682304652
8899.0,127.01358085534368
8909.0,117.59498999800354
8920.0,106.50045740440052
8930.0,94.52314103913109
8939.0,82.65791230120755
8949.0,71.85520518404182
8960.0,62.886328421022974
8970.0,56.27681792129126
8979.0,52.26429594819392
8989.0,50.80310011103172
8999.0,51.623405766632466
9010.0,54.29374997865778
9019.0,58.267389090153536
9029.0,62.95693589783041
9039.0,67.8209118211007
9050.0,72.35253388754174
9060.0,75.97136981421716
9069.0,78.01304327969424
9079.0,77.93307209151305
9090.0,75.56206319349671
9100.0,71.18181729085802
9109.0,65.39248944903736
9119.0,58.90929685635386
9129.0,52.40777025125602
9140.0,46.4320924738736
9149.0,41.327941709058145
9159.0,37.1930021159848
9169.0,33.88823212291219
9180.0,31.13503337789871
9189.0,28.64691789301678
9199.0,26.20731185884199
9209.0,23.659688685432194
9220.0,20.857814500189157
9230.0,17.64047532249636
9239.0,13.847736348140362
9249.0,9.347422481828353
9260.0,4.030073855427264
9270.0,-2.221059015896958
9279.0,-9.513722097241294
9289.0,-17.84553343629616
9299.0,-26.99528899895272
9310.0,-36.517809789133004
9319.0,-45.863944820551545
9329.0,-54.55095346219615
9339.0,-62.272408396113185
9350.0,-68.87736338262842
9359.0,-74.26827019774143
9369.0,-78.34651575507804
9379.0,-81.05597562362126
9390.0,-82.45981571005308
9400.0,-82.78818292504451
9409.0,-82.43127678307874
9419.0,-81.8458021615226
9430.0,-81.39476033538348
9440.0,-81.2328719429204
9449.0,-81.31002794676226
9459.0,-81.43260329855721
9469.0,-81.30628796028171
9480.0,-80.58454093291844
9489.0,-78.9751473425347
9499.0,-76.3557252054538
9509.0,-72.79480922188961
9520.0,-68.51384577791899
9530.0,-63.93773239970231
9539.0,-59.78415528043187
9549.0,-56.92845679975352
9560.0,-56.01751093629333
9570.0,-57.18224998405547
9579.0,-60.08610383241259
9589.0,-64.1430691840789
9600.0,-68.67407149462719
9610.0,-72.99236756593855
9619.0,-76.47976508818874
9629.0,-78.65810383510498
9639.0,-79.25891235181585
9650.0,-78.25926346572413
9659.0,-75.80768843238708
9669.0,-72.07624432815774
9679.0,-67.20527767843092
9690.0,-61.40787122412982
9700.0,-55.079570058997
9709.0,-48.74337544990789
9719.0,-42.887072600832454
9730.0,-37.86968410956686
9740.0,-33.92077653507304
9749.0,-31.13416699609128
9759.0,-29.449449456371468
9769.0,-28.682595331894614
9780.0,-28.589078915400975
9789.0,-28.902814994407947
9799.0,-29.352036225338104
9809.0,-29.68379350933073
9820.0,-29.699882265835924
9829.0,-29.286308177778007
9839.0,-28.43391749434027
9849.0,-27.255581029932383
9860.0,-25.96775841730792
9870.0,-24.7882985886037
9879.0,-23.783747988622977
9889.0,-22.791492234390176
9900.0,-21.49667360411458
9910.0,-19.5981096795857
9919.0,-16.93668911187561
9929.0,-13.52691533724948
9939.0,-9.499190746077808
9950.0,-4.994838963292493
9959.0,-0.10247013936966684
9969.0,5.110643781211169
9979.0,10.556574841292445
9990.0,16.159353259273317
10000.0,21.880521313039544
10009.0,27.65920408781603
10019.0,33.37194016154161
10030.0,38.89541920127126
10040.0,44.15616123823532
10049.0,49.06815086123714
10059.0,53.44901685896754
10070.0,57.02194783658432
10080.0,59.488723601731785
10089.0,60.63556412012161
10099.0,60.45092763348856
10109.0,59.1740643570524
10120.0,57.19802637253263
10129.0,54.90649655914317
10139.0,52.59864035890202
10149.0,50.50809619519559
10160.0,48.80377682598458
10170.0,47.55970283838919
10179.0,46.76818716857616
10189.0,46.38015176929133
10200.0,46.30305306654554
10210.0,46.376979920220606
10219.0,46.39007240179561
10229.0,46.12895916633116
10240.0,45.4218976556627
10250.0,44.155834545296585
10259.0,42.28698592617731
10269.0,39.875945286180375
10279.0,37.11839099232304
10290.0,34.26452376186257
10299.0,31.366727975896566
10309.0,27.974273955935598
10319.0,23.0117174815295
10330.0,14.980962772973726
10340.0,2.4079147552528717
10349.0,-15.677330701586582
10359.0,-39.39511844044424
10370.0,-67.85644614897201
10380.0,-99.19050291945295
10389.0,-130.76619985014682
10399.0,-159.55992301882267
10409.0,-182.55036365806993
10420.0,-197.06073676271993
10429.0,-201.04293462948306
10439.0,-193.27013094896301
10449.0,-173.3940814905234
10460.0,-141.94575254298854
10469.0,-100.3842806569606
10479.0,-51.08013088275652
10489.0,2.9932381334614657
10500.0,58.7979024647802
10510.0,113.64595210449076
10519.0,165.30494446072223
10529.0,211.95982590847714
10540.0,252.21144490249313
10550.0,285.08354671140034
10559.0,309.97935366721157
10569.0,326.6320482430442
10579.0,335.07258344826437
10590.0,335.56863995791787
10599.0,328.5470243989649
10609.0,314.5754669150934
10619.0,294.4112416286553
10630.0,269.0475691128256
10639.0,239.71141530083943
10649.0,207.82957093418761
10659.0,175.01944736799655
10670.0,143.1340740708996
10680.0,114.29258338335765
10689.0,90.74938659055499
10699.0,74.4952138714036
10710.0,66.6757867254951
10720.0,67.14157764015488
10729.0,74.41215989536231
10739.0,86.01714290614662
10749.0,98.95663953469138
10760.0,110.09897394977223
10769.0,116.47407969911751
10779.0,115.48042452144392
10789.0,105.03597174715627
10800.0,83.69701135748208
10810.0,50.77582756097806
10819.0,6.481385197467837
10829.0,-47.960390498292284
10840.0,-110.28665375903259
10850.0,-177.31487681774914
10859.0,-245.20333300234327
10869.0,-309.8515116663299
10880.0,-367.38918410102474
10890.0,-414.6321844152701
10899.0,-449.35665082279775
10909.0,-470.3352001106927
10919.0,-477.2542330960643
10930.0,-470.68383898297606
10939.0,-452.10138227475466
10949.0,-423.80154483844035
10959.0,-388.593559090888
10970.0,-349.3812468676798
10980.0,-308.7913239237135
10989.0,-268.9358441291863
10999.0,-231.31364322959337
11010.0,-196.8322977901291
11020.0,-165.91141642940252
11029.0,-138.60164663914117
11039.0,-114.67735139818014
11049.0,-93.71196316993557
11060.0,-75.16620237731588
11069.0,-58.51587104741538
11079.0,-43.39877367562154
11089.0,-29.686269957109573
11100.0,-17.407942494890865
11109.0,-6.5894144467392355
11119.0,2.8582154838312137
11129.0,11.13119224778314
11140.0,18.471920264006293
11150.0,25.153104457032708
11159.0,31.53630210250493
11169.0,38.15997903619935
11180.0,45.772333807401196
11190.0,55.20054146648827
11199.0,67.0051067550938
11209.0,81.06560529368699
11219.0,96.40196799438141
11230.0,111.40124960607919
11239.0,124.30181513075112
11249.0,133.64352458390758
11259.0,138.52236008945286
11270.0,138.66189271905776
11279.0,134.36728065749972
11289.0,126.42240838416076
11299.0,115.97538640496352
11310.0,104.40199967222996
11320.0,93.10618142434154
11329.0,83.26700780930085
11339.0,75.59707581622601
11350.0,70.2161290723045
11360.0,66.7717366504542
11369.0,64.80136851706503
11379.0,64.0564510121636
11389.0,64.51733227924954
11400.0,66.19120967520475
11409.0,68.96877174272637
11419.0,72.61921981030757
11429.0,76.83229683451793
11440.0,81.26702824147652
11450.0,85.6186714873817
11459.0,89.66275069879701
11469.0,93.22461578057137
11480.0,96.10642081092277
11490.0,98.05600706204228
11499.0,98.8226812689437
11509.0,98.27068436192918
11520.0,96.47922297065743
11530.0,93.7664359808244
11539.0,90.61318953403827
11549.0,87.52450449719977
11559.0,84.91195699790289
11570.0,83.0348562831976
11579.0,81.95416753116714
11589.0,81.47196266359748
11599.0,81.1224811203442
11610.0,80.27367360303113
11620.0,78.29714086829857
11629.0,74.73577844953614
11639.0,69.4189653043366
11650.0,62.46290308992111
11660.0,54.15028027276226
11669.0,44.80168002569193
11679.0,34.744559450997244
11689.0,24.361026714398122
11700.0,14.13674744155017
11709.0,4.6582728428381595
11719.0,-3.4866805711650453
11729.0,-9.902376620716591
11740.0,-14.52808149053136
11749.0,-17.5732254497095
11759.0,-19.303531662288407
11769.0,-19.896895162242913
11780.0,-19.47578572621743
11790.0,-18.223284349811838
11799.0,-16.444094434648257
11809.0,-14.529783420387309
11820.0,-12.885437056743626
11830.0,-11.875827524124963
11839.0,-11.785982134100342
11849.0,-12.783236525135191
11859.0,-14.909411165102187
11870.0,-18.108438720743422
11879.0,-22.23357846344071
11889.0,-27.001674633212737
11899.0,-31.964066021294094
11910.0,-36.591620067341104
11919.0,-40.43663622257639
11929.0,-43.214253943948734
11939.0,-44.752050353360055
11950.0,-44.942613433684
11960.0,-43.80876889086077
11969.0,-41.610348286644744
11979.0,-38.856208074115216
11990.0,-36.184032372364726
12000.0,-34.19158551285824
12009.0,-33.32711333782475
12019.0,-33.84745805300145
12029.0,-35.780964162455334
12040.0,-38.91095238016332
12049.0,-42.855158317382184
12059.0,-47.21317748485712
12069.0,-51.650871910111896
12080.0,-55.85569532215975
12090.0,-59.445418052283415
12099.0,-61.963226183140144
12109.0,-62.996430070741546
12120.0,-62.32470296788729
12130.0,-59.983204348726886
12139.0,-56.22891647323598
12149.0,-51.46767517195345
12160.0,-46.17412841496939
12170.0,-40.838621522258904
12179.0,-35.97732578866702
12189.0,-32.124388010356085
12199.0,-29.676728212228532
12210.0,-28.683123070925554
12219.0,-28.83038928312517
12229.0,-29.655705923169563
12239.0,-30.75518062100626
12250.0,-31.844966753958797
12260.0,-32.73720926706854
12269.0,-33.329410543259385
12279.0,-33.62204248751246
12290.0,-33.70659477384518
12300.0,-33.68474027890459
12309.0,-33.581906650411945
12319.0,-33.34903873341863
12329.0,-32.91893296068868
12340.0,-32.203387096902595
12349.0,-31.047677409916364
12359.0,-29.27151518683484
12369.0,-26.813816507062693
12380.0,-23.851903461221553
12389.0,-20.78410825555787
12399.0,-18.07406420933879
12409.0,-16.03934268158658
12420.0,-14.701992866545154
12430.0,-13.781531830464893
12439.0,-12.810306068551297
12449.0,-11.293875857029898
12460.0,-8.873265994081077
12470.0,-5.461267170002555
12479.0,-1.2795227272820333
12489.0,3.2510072547079893
12499.0,7.671131253025284
12510.0,11.53894743459003
12519.0,14.388416340012755
12529.0,15.772450178054704
12539.0,15.456824045470183
12550.0,13.58228761292004
12559.0,10.620583228803781
12569.0,7.192655852349675
12579.0,3.9250477059653854
12590.0,1.3999916391006832
12600.0,0.1335268008388245
12609.0,0.5172012627200919
12619.0,2.735779815253443
12630.0,6.73592476193339
12640.0,12.274362962712527
12649.0,18.978102493492397
12659.0,26.38507621849756
12669.0,34.05076134765585
12680.0,41.765601798821095
12689.0,49.74754643720142
12699.0,58.62074074187968
12709.0,69.14453680185288
12720.0,81.83049273787353
12730.0,96.63824064559896
12739.0,112.88763744315472
12749.0,129.39813853691095
12760.0,144.7239560092925
12770.0,157.33154072557392
12779.0,165.70055939000878
12789.0,168.4409319477636
12800.0,164.46451505840423
12810.0,153.13465772845365
12819.0,134.32207986979873
12829.0,108.41587175409762
12839.0,76.37200322764204
12850.0,39.746153041255155
12859.0,0.5678307221129316
12869.0,-38.95712982698922
12879.0,-76.74392493018705
12890.0,-110.97705999534796
12900.0,-140.16078213040365
12909.0,-163.20754342981647
12919.0,-179.55817945916436
12930.0,-189.20725686238228
12940.0,-192.5938127813332
12949.0,-190.4558201225047
12959.0,-183.74916748438233
12969.0,-173.6234011403058
12980.0,-161.35252513027098
12989.0,-148.15809878561794
12999.0,-135.00787170479924
13009.0,-122.51424952612975
13020.0,-110.94800026533616
13029.0,-100.34609766175411
13039.0,-90.75661737840926
13049.0,-82.59392119402503
13060.0,-76.86137260095862
13070.0,-74.96152154023464
13079.0,-78.13311650883306
13089.0,-86.88655520071191
13100.0,-100.73732366218533
13110.0,-118.23881976038513
13119.0,-137.2007491795046
13129.0,-155.00685139148192
13139.0,-168.93310635784584
13150.0,-176.38524354190736
13159.0,-175.06081513317213
13169.0,-163.10709986244785
13179.0,-139.34668114685266
13190.0,-103.54761928442481
13199.0,-56.598619965488716
13209.0,-0.4865764627970855
13219.0,61.89353848051847
13230.0,127.03937153863455
13240.0,191.22682642391845
13249.0,250.91451326320907
13259.0,303.07044818076207
13270.0,345.3764078254911
13280.0,376.30528591000643
13289.0,395.08680347351003
13299.0,401.63477205388693
13309.0,396.4982732541276
13320.0,380.7957431535027
13329.0,356.0905054281044
13339.0,324.266466850625
13349.0,287.4535024146245
13360.0,247.94173623636038
13370.0,207.99612688653275
13379.0,169.59559117754665
13389.0,134.24129141980842
13400.0,102.92808643264732
13410.0,76.20323083002822
13419.0,54.20184407542041
13429.0,36.66940522239601
13440.0,23.02160374185894
13450.0,12.430195186042672
13459.0,3.9262342515483186
13469.0,-3.4622255765261696
13479.0,-10.567017300736918
13490.0,-17.97690921860398
13499.0,-25.97403054211147
13509.0,-34.51552836808044
13519.0,-43.306593480975444
13530.0,-51.962445072589624
13540.0,-60.152464476995334
13549.0,-67.6267790908872
13559.0,-74.17021090775775
13570.0,-79.60166997930804
13580.0,-83.82398009085539
13589.0,-86.82857805303014
13599.0,-88.63808340768367
13609.0,-89.27233868579418
13620.0,-88.78021649215786
13629.0,-87.28901342723019
13639.0,-85.01485454193062
13649.0,-82.22287465059519
13660.0,-79.177448062108
13669.0,-76.13504253502546
13679.0,-73.36874728590435
13689.0,-71.16578958154548
13700.0,-69.77810090606863
13710.0,-69.35110581526293
13719.0,-69.87028177968124
13729.0,-71.16888360850656
13740.0,-72.9978668863212
13750.0,-75.09629280953213
13759.0,-77.21104229116655
13769.0,-79.08687123518571
13779.0,-80.47535815384323
13790.0,-81.16227473717403
13799.0,-80.98817913312816
13809.0,-79.88002955008626
13819.0,-77.90205850503156
13830.0,-75.25882740782167
13839.0,-72.20499681843042
13849.0,-68.93180099225329
13859.0,-65.53490824258813
13870.0,-62.08292315478972
13880.0,-58.704320821033264
13889.0,-55.59161087533501
13899.0,-52.91082762763887
13910.0,-50.702345308703045
13920.0,-48.84735487542506
13929.0,-47.10047162573187
13939.0,-45.15897762371774
13949.0,-42.73536679520103
13960.0,-39.59328677886436
13969.0,-35.561009508613395
13979.0,-30.6169310892062
13989.0,-25.048202394524367
14000.0,-19.456749092595803
14010.0,-14.454507335867314
14019.0,-10.304044645153574
14029.0,-6.88124394858412
14040.0,-3.9256868330148063
14050.0,-1.2537564328540391
14059.0,1.202128437840324
14069.0,3.4460781749179072
14080.0,5.497052776087151
14090.0,7.446592793707124
14099.0,9.43613488656303
14109.0,11.584279914854053
14119.0,13.957977994340457
14130.0,16.591677772216308
14139.0,19.484681168265638
14149.0,22.573725123267305
14159.0,25.733154824513626
14170.0,28.799188007186306
14180.0,31.5859781674926
14189.0,33.907598973219926
14199.0,35.62005238404061
14210.0,36.65997079683683
14220.0,37.06700240708415
14229.0,36.998942652901135
14239.0,36.73648369111668
14249.0,36.660547089459534
14260.0,37.19766481180596
14269.0,38.73758984569001
14279.0,41.50909750245193
14289.0,45.41457127723955
14300.0,49.90824379122684
14309.0,54.04769177485331
14319.0,56.745033390829136
14329.0,57.08165403312273
14340.0,54.51504967823617
14350.0,48.9313650939765
14359.0,40.6174071648876
14369.0,30.215642306598248
14380.0,18.657650908294425
14390.0,7.049804464856793
14399.0,-3.4909099473127
14409.0,-12.012896582576056
14419.0,-17.863891805560076
14430.0,-20.754962165239505
14439.0,-20.743358312726237
14449.0,-18.12955762762597
14459.0,-13.315140936531133
14470.0,-6.722012739204053
14479.0,1.1704381864239952
14489.0,9.743037161781315
14499.0,18.246459324780535
14510.0,25.942169338794614
14520.0,32.269918349237024
14529.0,36.9200391235453
14539.0,39.79663571425503
14550.0,40.946846683538006
14560.0,40.51573747354731
14569.0,38.719369512001066
14579.0,35.8074112975295
14589.0,32.02829537012739
14600.0,27.63143018651233
14609.0,22.889999989076372
14619.0,18.092262129419254
14629.0,13.508504600641258
14640.0,9.391305011530305
14650.0,5.999304957419042
14659.0,3.5726795454702174
14669.0,2.2644860904736244
14680.0,2.1039270236266288
14690.0,3.000185362122904
14699.0,4.735126992969597
14709.0,6.959555227849744
14720.0,9.264726938834281
14730.0,11.324102584556144
14739.0,12.988517124078308
14749.0,14.235598969275163
14759.0,15.030859109283764
14770.0,15.26845949199459
14779.0,14.85264355486558
14789.0,13.780450099763677
14799.0,12.086105069844175
14810.0,9.732023884307075
14820.0,6.6507674677430355
14829.0,2.932061220804949
14839.0,-1.0789725270295556
14850.0,-4.8755272108497305
14860.0,-7.946924806228345
14869.0,-9.893937785418121
14879.0,-10.489402369656055
14889.0,-9.674344408456793
14900.0,-7.503889719292463
14909.0,-4.097401306643748
14919.0,0.37070813327790253
14929.0,5.638930151937011
14940.0,11.312964416640217
14949.0,16.855907856664462
14959.0,21.64645424041535
14969.0,25.102478365267796
14980.0,26.845089695103383
14990.0,26.82027107887908
14999.0,25.266836743589455
15009.0,22.547780464172323
15020.0,19.009914170263773
15030.0,14.981544978457112
15039.0,10.832298214151624
15049.0,6.95867083977766
15059.0,3.6875017774833707
15070.0,1.1895343400780745
15079.0,-0.5638479654014825
15089.0,-1.8192878418749534
15099.0,-2.9974811267067096
15110.0,-4.547337866467621
15119.0,-6.781444863071646
15129.0,-9.816915683366057
15139.0,-13.618141287348456
15150.0,-18.048252386877312
15160.0,-22.88406171701883
15169.0,-27.811760837912995
15179.0,-32.43575225393707
15190.0,-36.31761764271777
15200.0,-39.03220540152071
15209.0,-40.225839551092946
15219.0,-39.6826481713778
15229.0,-37.38386161818142
15240.0,-33.51196325681326
15249.0,-28.40177900610352
15259.0,-22.502050405612735
15269.0,-16.361522472377434
15280.0,-10.59322389434895
15290.0,-5.799291443380768
15299.0,-2.4662232208879855
15309.0,-0.8519450921758834
15320.0,-0.9366582193929772
15330.0,-2.4862663358985175
15339.0,-5.137633876586809
15349.0,-8.398537891454144
15360.0,-11.628905837252178
15370.0,-14.131910544306859
15379.0,-15.334998788678535
15389.0,-14.943046482182108
15399.0,-13.008430462911978
15410.0,-9.926217706129805
15419.0,-6.348550612800878
15429.0,-3.02505737867995
15439.0,-0.6320906182703516
15450.0,0.3639294589211064
15460.0,-0.1896782687797677
15469.0,-2.0989833464355905
15479.0,-4.915276778309457
15490.0,-8.097830626551817
15500.0,-11.130676398444697
15509.0,-13.581319720995474
15519.0,-15.171069265704224
15529.0,-15.84124382760906
15540.0,-15.741504017322026
15549.0,-15.149419768968038
15559.0,-14.380482717174239
15569.0,-13.707216212928136
15580.0,-13.288675117948237
15589.0,-13.130221574407047
15599.0,-13.090684329461487
15609.0,-12.943089127692675
15620.0,-12.485363754583922
15630.0,-11.63923107127658
15639.0,-10.443226635967287
15649.0,-8.950904331539727
15660.0,-7.140993257634834
15670.0,-4.919291878695307
15679.0,-2.2566081037567307
15689.0,0.5973278705437247
15699.0,3.0815233595171154
15710.0,4.633465405844453
15719.0,5.06362297802999
15729.0,4.604043561791368
15739.0,3.6639801159626844
15750.0,2.610018878452992
15759.0,1.7039352590026056
15769.0,1.1142793812875698
15779.0,0.9305673805823298
15790.0,1.1718711299405125
15800.0,1.7788959429350681
15809.0,2.590363065241269
15819.0,3.3562830150942604
15830.0,3.825815498707663
15840.0,3.8535594186820097
15849.0,3.437186013508883
15859.0,2.6764748115743733
15869.0,1.7102251388727832
15880.0,0.6671994322564027
15889.0,-0.3627043126528958
15899.0,-1.3158812364974182
15909.0,-2.1092499281137376
15920.0,-2.6379365043933776
15930.0,-2.839974361699752
15939.0,-2.719840669364294
15949.0,-2.2651062279149303
15960.0,-1.3809453552666016
15970.0,0.02443038245312698
15979.0,1.8824110023014047
15989.0,3.9138816818924704
16000.0,5.73254801732289
16010.0,6.994305930163637
16019.0,7.483557296488898
16029.0,7.136213395762898
16039.0,6.049318421615452
16050.0,4.463846683817582
16059.0,2.6917680255665504
16069.0,1.0483575504867435
16079.0,-0.15019776235508192
16090.0,-0.5906200498191102
16100.0,-0.040398595430227766
16109.0,1.5643465484593646
16119.0,4.108679961173461
16130.0,7.34751493356652
16140.0,10.958319329573163
16149.0,14.596408674111395
16159.0,17.961837507451992
16169.0,20.836665764656733
16180.0,23.059814008512323
16189.0,24.49289914229056
16199.0,25.04567137229839
16209.0,24.734810734868745
16220.0,23.69278393757517
16229.0,22.101981605738928
16239.0,20.117535197912453
16249.0,17.86519715351323
16260.0,15.553302350673004
16270.0,13.650033642341473
16279.0,12.992798396762497
16289.0,14.699178075719312
16300.0,19.870606171558777
16310.0,29.22787237113993
16319.0,42.85812620048888
16329.0,60.152597490035156
16339.0,79.89011801766556
16350.0,100.38345066523459
16359.0,119.6358961419523
16369.0,135.5187005824188
16379.0,146.0212517130589
16390.0,149.54890517813405
16399.0,145.12525600420832
16409.0,132.40944572622942
16419.0,111.62147518934876
16430.0,83.50914037771057
16440.0,49.349524608833825
16449.0,10.893891645370553
16459.0,-29.769918588272542
16470.0,-70.40709400372013
16480.0,-108.87376369601195
16489.0,-143.38376551180585
16499.0,-172.6882637217633
16509.0,-196.0608941944836
16520.0,-213.16514030905557
16529.0,-223.9843428869981
16539.0,-228.8580856128456
16549.0,-228.50577863426307
16560.0,-223.92334182010654
16570.0,-216.14419142747894
16579.0,-205.96486963971537
16589.0,-193.80414609506408
16600.0,-179.8183587751957
16610.0,-164.21879204051487
16619.0,-147.55344439928035
16629.0,-130.72742686109768
16640.0,-114.80851568515074
16650.0,-100.89204730139649
16659.0,-90.13159329070103
16669.0,-83.71485039342943
16679.0,-82.59316659040252
16690.0,-87.09608759366891
16699.0,-96.69679641899431
16709.0,-110.02657348710385
16719.0,-125.066375262586
16730.0,-139.42669493198142
16740.0,-150.62858344564822
16749.0,-156.2847692550371
16759.0,-154.18682541103425
16770.0,-142.43995386167103
16780.0,-119.71937950382626
16789.0,-85.55908359917892
16799.0,-40.56037055838134
16809.0,13.54270089861031
16820.0,74.01893242820246
16829.0,137.48808067432947
16839.0,200.36992288632317
16849.0,259.27189529560627
16860.0,311.2466919045163
16869.0,353.9501479530035
16879.0,385.74078348618957
16889.0,405.7492641885506
16900.0,413.9109115440834
16910.0,410.891561481441
16919.0,397.8767893347306
16929.0,376.33249905958957
16940.0,347.86284241859516
16950.0,314.1585468813743
16959.0,276.9577370874944
16969.0,237.9921097678433
16979.0,198.9215807249052
16990.0,161.23690027737499
16999.0,126.13494174037855
17009.0,94.43879035451103
17019.0,66.61948846253279
17030.0,42.88374618477411
17039.0,23.26554334641363
17049.0,7.702941878679844
17059.0,-3.9221864178495323
17070.0,-11.82154060296227
17080.0,-16.394121529655365
17089.0,-18.290025291632567
17099.0,-18.386227937945435
17110.0,-17.681743226835625
17120.0,-17.143575737911327
17129.0,-17.546633204073007
17139.0,-19.374440209864957
17149.0,-22.828247086427325
17160.0,-27.915155885832686
17169.0,-34.5283320318606
17179.0,-42.45933916255227
17189.0,-51.370343358149185
17200.0,-60.809273936129195
17210.0,-70.3006702689227
17219.0,-79.43811562614037
17229.0,-87.8874875512315
17240.0,-95.32994229148876
17250.0,-101.46487847597551
17259.0,-106.10623282127932
17269.0,-109.26494378699037
17280.0,-111.12966325616023
17290.0,-111.97993604897292
17299.0,-112.09299693678145
17309.0,-111.66409097946158
17319.0,-110.76802504369398
17330.0,-109.38523823756806
17339.0,-107.46668571675814
17349.0,-105.00528933918557
17359.0,-102.0815212747673
17370.0,-98.82259954292572
17380.0,-95.2846259754309
17389.0,-91.39487173709522
17399.0,-87.05854923137485
17410.0,-82.35359518841078
17420.0,-77.61095166339051
17429.0,-73.24748085651814
17439.0,-69.48193163604796
17449.0,-66.23055809265249
17460.0,-63.26359125187263
17469.0,-60.39531818267537
17479.0,-57.52601514110717
17489.0,-54.59845546214322
17500.0,-51.5762572494099
17509.0,-48.43749268710001
17519.0,-45.16359514404242
17529.0,-41.75807492959376
17540.0,-38.280170853836815
17550.0,-34.81287316954279
17559.0,-31.369297256383156
17569.0,-27.84935594628624
17580.0,-24.09715088783118
17590.0,-19.981081383474674
17599.0,-15.422003292150563
17609.0,-10.396325862012075
17619.0,-4.9623703181145675
17630.0,0.7196616473067878
17639.0,6.417489810519815
17649.0,11.873088926929018
17659.0,16.820501669046454
17670.0,20.989060096842206
17679.0,24.11797143373032
17689.0,25.989629083702383
17699.0,26.487644995973547
17710.0,25.65765616403848
17720.0,23.70707491943359
17729.0,20.91861100794115
17739.0,17.547127399137104
17750.0,13.781359377124833
17760.0,9.78658328283356
17769.0,5.8037948513627855
17779.0,2.2370835779545963
17789.0,-0.3722282619390103
17800.0,-1.489084273499524
17809.0,-0.7303813421419879
17819.0,2.054432580112409
17829.0,6.742372568942032
17840.0,12.92966838286373
17850.0,19.970911718477016
17859.0,27.041550098090617
17869.0,33.22803329042138
17880.0,37.69970088131353
17890.0,39.944153886645246
17899.0,39.92231344514194
17909.0,38.01880948092143
17920.0,34.834994653007
17930.0,30.98886828061702
17939.0,27.024408934165116
17949.0,23.404806816755734
17959.0,20.514630294080817
17970.0,18.626413740917332
17979.0,17.849703079892244
17989.0,18.129444731736722
17999.0,19.31596882346257
18010.0,21.232982652933448
18020.0,23.689114134432593
18029.0,26.479518127723665
18039.0,29.42181789950207
18050.0,32.38084581995624
18060.0,35.23244205816888
18069.0,37.824772873909225
18079.0,40.01662458037951
18089.0,41.72594632893543
18100.0,42.88144614079492
18109.0,43.34662815635142
18119.0,42.945948111882196
18129.0,41.546580972609085
18140.0,39.07641852891562
18149.0,35.51454708045557
18159.0,30.958775176339564
18169.0,25.721696006689236
18180.0,20.321845320522883
18190.0,15.368087986740566
18199.0,11.443474421075539
18209.0,9.024479342221541
18220.0,8.37980253155593
18230.0,9.44289595830172
18239.0,11.78931958981427
18249.0,14.838695798124279
18259.0,18.134776518085364
18270.0,21.40039303818386
18279.0,24.358395411889013
18289.0,26.635875293148036
18299.0,27.898097555495617
18310.0,28.007918660918445
18319.0,27.024953152182963
18329.0,25.113141487225636
18339.0,22.491065003454352
18350.0,19.429937220560863
18360.0,16.23231987856301
18369.0,13.16961037175298
18379.0,10.413754743519718
18390.0,7.999487480101941
18400.0,5.820547780743463
18409.0,3.6695187519517947
18419.0,1.3482048950933696
18429.0,-1.1837693514675756
18440.0,-3.7264142919131786
18449.0,-5.893082742787097
18459.0,-7.267127251197686
18469.0,-7.568643059814556
18480.0,-6.747334720387795
18490.0,-4.964572800586506
18499.0,-2.503848761692292
18509.0,0.29622798855940385
18520.0,3.029897086935726
18530.0,5.1857561219616635
18539.0,6.2104373573167
18549.0,5.731518441489822
18560.0,3.792452363663576
18570.0,0.8568357643266257
18579.0,-2.453514063524233
18589.0,-5.638234742663994
18599.0,-8.394818685235414
18610.0,-10.537320800553786
18619.0,-11.922143410661262
18629.0,-12.460295771674275
18639.0,-12.213006761897866
18650.0,-11.522468295153477
18660.0,-11.041052660670198
18669.0,-11.51664336826017
18679.0,-13.443501495006197
18690.0,-16.89282185522593
18700.0,-21.602381112560565
18709.0,-27.100328092908562
18719.0,-32.75922277526768
18729.0,-37.89805252359089
18740.0,-41.95126684478019
18749.0,-44.57293012997223
18759.0,-45.63631485263237
18769.0,-45.19426747915696
18780.0,-43.4129754746588
18789.0,-40.47565989952049
18799.0,-36.51593345156591
18809.0,-31.623732894729105
18820.0,-25.886496224250802
18830.0,-19.410848095063418
18839.0,-12.33570378276996
18849.0,-4.88193401931256
18860.0,2.5864073455534036
18870.0,9.549977389200558
18879.0,15.365577045505686
18889.0,19.335748081405264
18899.0,20.860652222851684
18910.0,19.62435505420067
18919.0,15.685439496473878
18929.0,9.479827754095627
18939.0,1.8267645129163097
18950.0,-6.13553602824569
18959.0,-13.208135268272498
18969.0,-18.48289353282212
18979.0,-21.554234603870075
18990.0,-22.484205697997346
19000.0,-21.57055017270674
19009.0,-19.02764776462216
19019.0,-14.72861452836158
19030.0,-8.17082002920205
19040.0,1.2739484485131967
19049.0,13.953335729092279
19059.0,29.624927716514772
19069.0,47.421065080212244
19080.0,66.0462373002612
19089.0,84.0303928905712
19099.0,99.90359834368911
19109.0,112.26156617002773
19120.0,119.80003128881653
19130.0,121.44416721093214
19139.0,116.55468895973561
19149.0,105.02704514320888
19160.0,87.22303966503387
19170.0,63.881003369110005
19179.0,36.079472298118894
19189.0,5.180479237582985
19200.0,-27.273994488580374
19210.0,-59.67395672208959
19219.0,-90.46256739888834
19229.0,-118.27631673619408
19239.0,-142.07699363425786
19250.0,-161.23110920314136
19259.0,-175.49624025693896
19269.0,-184.92911726094573
19279.0,-189.80925900800082
19290.0,-190.6227398118468
19300.0,-188.01439553370858
19309.0,-182.6472609734725
19319.0,-175.06657178044415
19330.0,-165.66640355790307
19340.0,-154.71951260311295
19349.0,-142.39880341311346
19359.0,-128.80646308713986
19369.0,-114.05023853001668
19380.0,-98.32247982600815
19389.0,-81.90431795772577
19399.0,-65.10936334454246
19409.0,-48.25858069924285
19420.0,-31.73973654312002
19429.0,-16.154238665814574
19439.0,-2.5161326418116223
19449.0,7.670406263673866
19460.0,12.676103456859073
19470.0,11.103963129302912
19479.0,2.4314256830487535
19489.0,-12.707580247660081
19500.0,-32.56924314084465
19510.0,-54.61705667513047
19519.0,-75.95598228229471
19529.0,-93.72245354529917
19539.0,-105.35348426341865
19550.0,-108.74105373297846
19559.0,-102.31711128204054
19569.0,-85.12938734560176
19579.0,-56.952712161680545
19590.0,-18.40297309528264
19599.0,29.049999995610037
19609.0,83.21629995669507
19619.0,141.3863890480287
19630.0,200.51310632134326
19640.0,257.40287815045815
19649.0,308.9805907541481
19659.0,352.5982907675099
19670.0,386.27198491196293
19680.0,408.760775342205
19689.0,419.51740456399364
19699.0,418.616929861872
19709.0,406.7340454604299
19720.0,385.14284291973826
19729.0,355.65085288288174
19739.0,320.4077882999137
19749.0,281.63655047602856
19760.0,241.41188833505646
19770.0,201.55619833313102
19779.0,163.6037367287463
19789.0,128.76672738562223
19800.0,97.89836382820218
19810.0,71.46132720836388
19819.0,49.50974896041217
19829.0,31.725805078608186
19840.0,17.52764962963663
19850.0,6.185577565763712
19859.0,-3.1156863883970876
19869.0,-11.241617863811928
19879.0,-19.02453270654365
19890.0,-27.11370348310508
19899.0,-35.84565715738149
19909.0,-45.247294226921305
19919.0,-55.16069065940968
19930.0,-65.36088631453731
19940.0,-75.59911938604837
19949.0,-85.61436248900512
19959.0,-95.14192187184948
19970.0,-103.8963906879926
19980.0,-111.54312778658178
19989.0,-117.75509086646423
19999.0,-122.42035231225834
20009.0,-125.83965087271008
20020.0,-128.61796425632056
20029.0,-131.25713438691017
20039.0,-133.86316888413302
20049.0,-136.24243016342896
20060.0,-138.16671950310723
20069.0,-139.48976305711238
20079.0,-140.11623228291222
20089.0,-139.96935040072904
20100.0,-138.97163690520065
20110.0,-136.99077681700916
20119.0,-133.76976539059558
20129.0,-128.8987368358248
20140.0,-121.89867788224393
20150.0,-112.47033574904545
20159.0,-100.81487953187231
20169.0,-87.79124880499765
20179.0,-74.7837681746545
20190.0,-63.385794605373455
20199.0,-55.05763886216275
20209.0,-50.826881536221876
20219.0,-51.087801514564
20230.0,-55.58689893262548
20239.0,-63.58534548963856
20249.0,-74.05292320648411
20259.0,-85.78966246507775
20270.0,-97.5298578662045
20280.0,-108.0972871704848
20289.0,-116.55510092403743
20299.0,-122.27339393097802
20310.0,-124.93617447175133
20320.0,-124.53762051788358
20329.0,-121.36139382383189
20339.0,-115.91479161525962
20349.0,-108.8211367920632
20360.0,-100.70198571662455
20369.0,-92.08302762427964
20379.0,-83.3482013736512
20389.0,-74.7357169384417
20400.0,-66.32980937327584
20410.0,-58.03360715365322
20419.0,-49.594257039859755
20429.0,-40.74277012382101
20440.0,-31.39163058533531
20450.0,-21.757171641434706
20459.0,-12.322366256877457
20469.0,-3.669585896278567
20480.0,3.7112285672636918
20490.0,9.550879203283776
20499.0,13.840084560230572
20509.0,16.796284845101855
20519.0,18.797663259785455
20530.0,20.32405658600697
20539.0,21.910767783116192
20549.0,24.09380510039819
20559.0,27.33397008952165
20570.0,31.931312178668346
20580.0,37.958056443539164
20589.0,45.231850494235076
20599.0,53.323964657022096
20610.0,61.59544622813127
20620.0,69.28772460314143
20629.0,75.6801808989798
20639.0,80.24718502678108
20649.0,82.72390622363949
20660.0,83.07654082589846
20669.0,81.45391005158665
20679.0,78.18124377266389
20689.0,73.77993087239729
20700.0,68.94919900710214
20709.0,64.46503789361985
20719.0,60.993648521296286
20729.0,58.879803133880195
20740.0,58.07618304187935
20750.0,58.34021509774198
20759.0,59.51990552271943
20769.0,61.59817314679222
20780.0,64.50350564141691
20790.0,68.0100472950935
20799.0,71.83248550002753
20809.0,75.70733977277713
20819.0,79.35083370732171
20830.0,82.40762009904525
20839.0,84.4836214971501
20849.0,85.22689513379567
20859.0,84.39491080638578
20870.0,81.90468315949762
20879.0,77.8774137676788
20889.0,72.63255992632934
20899.0,66.60581711271305
20910.0,60.27423536178566
20920.0,54.142770443630184
20929.0,48.70259551888262
20939.0,44.29263761717779
20950.0,40.96080341650313
20960.0,38.46333192840605
20969.0,36.42085548437637
20979.0,34.53008213292874
20989.0,32.69670842903698
21000.0,31.018550958529822
21009.0,29.668114332363718
21019.0,28.770614288117354
21029.0,28.319661063511063
21040.0,28.148885100821897
21050.0,27.985611105136503
21059.0,27.562055478375758
21069.0,26.70864711768469
21080.0,25.378548173685896
21090.0,23.609469149935453
21099.0,21.46519042037868
21109.0,19.002669902459488
21120.0,16.28366279812725
21130.0,13.401918358787556
21139.0,10.472551441424873
21149.0,7.587861571358249
21159.0,4.813596944422158
21170.0,2.24116294839411
21179.0,-0.0008875972008777816
21189.0,-1.8383770607444208
21199.0,-3.3588695576379406
21210.0,-4.803086578796389
21220.0,-6.442443543065248
21229.0,-8.47162039552037
21239.0,-10.981099387104587
21250.0,-13.941997719120142
21260.0,-17.162612651347636
21269.0,-20.285120384600084
21279.0,-22.872609684361073
21289.0,-24.53865012158812
21300.0,-25.047437751945814
21309.0,-24.343753090862624
21319.0,-22.4829514160018
21329.0,-19.475547496869293
21340.0,-15.201709733227945
21349.0,-9.60151421692393
21359.0,-3.06108467141187
21369.0,3.4173695887836244
21380.0,8.485635417116706
21390.0,10.892294327889704
21399.0,9.77278836870538
21409.0,4.783005746802067
21420.0,-3.8256022703811263
21430.0,-15.206875064376073
21439.0,-28.013020369886558
21449.0,-40.53002120677135
21459.0,-50.831793381925095
21470.0,-57.00403188398291
21479.0,-57.49315393865434
21489.0,-51.481868781264815
21499.0,-39.05291212932723
21510.0,-21.085053397110613
21519.0,0.893627757515833
21529.0,24.779696603290095
21539.0,48.06020554189067
21550.0,68.16929379422652
21560.0,82.89037192115961
21569.0,90.64021929428691
21579.0,90.60097485457838
21590.0,82.72525385985571
21600.0,67.636022161467
21609.0,46.451380938522604
21619.0,20.59250670679845
21629.0,-8.380666503250271
21640.0,-38.92158879478352
21649.0,-69.62133555010678
21659.0,-99.20866263022792
21669.0,-126.45273795815925
21680.0,-150.17172796661183
21690.0,-169.39918500324936
21699.0,-183.50400730729427
21709.0,-192.15340956421264
21720.0,-195.26093393344024
21730.0,-193.0337093908343
21739.0,-186.02690150738235
21749.0,-175.09159420708409
21760.0,-161.24149760220564
21770.0,-145.51510981686457
21779.0,-128.87083857603076
21789.0,-112.1418034927415
21799.0,-96.0439726566128
21810.0,-81.15982022688343
21819.0,-67.8661453816932
21829.0,-56.28619736722851
21839.0,-46.292013201125634
21850.0,-37.48002511953975
21860.0,-29.13302302096159
21869.0,-20.321167630086606
21879.0,-10.227826255998297
21890.0,1.4608230808047997
21900.0,14.382705589210433
21909.0,27.5663633968693
21919.0,39.47028698832486
21929.0,47.95617391251959
21940.0,50.544133532955854
21949.0,45.07092920317413
21959.0,30.37308679773111
21969.0,6.663672182100035
21980.0,-24.401374033270546
21989.0,-59.929173768991575
21999.0,-96.22043815780566
22009.0,-129.23387359560053
22020.0,-154.96519802453903
22030.0,-169.8290139275776
22039.0,-171.08428579791607
22049.0,-157.1769082692943
22060.0,-127.8955814105294
22070.0,-84.34788827881137
22079.0,-28.783499445722043
22089.0,35.72541516170189
22099.0,105.67662358608536
22110.0,177.4366967475586
22119.0,247.34495847207523
22129.0,311.7522197845722
22139.0,367.2104861176339
22150.0,410.8390288926975
22159.0,440.6776450106824
22169.0,455.85095401826345
22179.0,456.54383843693074
22190.0,443.87379980904547
22200.0,419.69657182654726
22209.0,386.3714432814468
22219.0,346.5408839115671
22230.0,302.9255063800373
22240.0,258.09541270575437
22249.0,214.25695664722087
22259.0,173.12608701863988
22269.0,135.87115571470932
22280.0,103.09017733389358
22289.0,74.84657706740171
22299.0,50.77356538737886
22309.0,30.224420672308874
22320.0,12.442171005293568
22330.0,-3.301213798075855
22339.0,-17.619684885523334
22349.0,-30.933991841346906
22360.0,-43.39860170067714
22370.0,-54.94197993551812
22379.0,-65.44910900879567
22389.0,-74.93305512231971
22400.0,-83.54969646566153
22410.0,-91.48247952199725
22419.0,-98.82688535467858
22429.0,-105.55918093665926
22439.0,-111.57625308562324
22450.0,-116.75869023961754
22459.0,-121.02859599670292
22469.0,-124.3835038828332
22479.0,-126.89918926067938
22490.0,-128.69606995999848
22500.0,-129.8597509756523
22509.0,-130.37861841010306
22519.0,-130.2292475388521
22530.0,-129.57949781740598
22540.0,-128.82406324539184
22549.0,-128.3019883376473
22559.0,-128.00627509429188
22569.0,-127.64303072596655
22580.0,-126.90997607303147
22589.0,-125.62195851272416
22599.0,-123.61755522325605
22609.0,-120.66550404488086
22620.0,-116.47381960423465
22629.0,-110.68229675991708
22639.0,-102.8068956149753
22649.0,-92.39573425898742
22660.0,-79.53861549440776
22670.0,-65.27376472391153
22679.0,-51.32456479522375
22689.0,-39.367935019748494
22700.0,-30.56421463329347
22710.0,-25.61439192885569
22719.0,-24.959841333738126
22729.0,-28.77217141988465
22739.0,-36.826988713784374
22750.0,-48.50750691349707
22759.0,-62.9340437876145
22769.0,-79.03129563265755
22779.0,-95.49198809113953
22790.0,-110.7996683122706
22799.0,-123.42371981172742
22809.0,-132.11250721403073
22819.0,-136.14928088983277
22830.0,-135.4937418828138
22840.0,-130.76602791267567
22849.0,-123.02171923753475
22859.0,-113.3470059418328
22870.0,-102.50472970950536
22880.0,-90.8836380270005
22889.0,-78.69040476502218
22899.0,-66.10620265754628
22909.0,-53.30669114915987
22920.0,-40.46317196344996
22929.0,-27.783868117955763
22939.0,-15.519123975710837
22949.0,-3.896342357473256
22960.0,6.934648867353379
22970.0,16.887306783770054
22979.0,25.909205797958457
22989.0,33.99161402366679
23000.0,41.17237739045392
23010.0,47.489737179513575
23019.0,52.923196167853874
23029.0,57.343746934276496
23040.0,60.474024992641645
23050.0,61.93279258972736
23059.0,61.4314999325659
23069.0,59.02010614788646
23079.0,55.1930219048186
23090.0,50.800790381933076
23099.0,46.84948106797217
23109.0,44.264756803619356
23119.0,43.67846761115467
23130.0,45.31068764577191
23140.0,48.99002900327052
23149.0,54.283812160149296
23159.0,60.65076843764589
23170.0,67.53462063009032
23180.0,74.40093836141439
23189.0,80.77709147423836
23199.0,86.30525877752206
23209.0,90.75420464004151
23220.0,93.96665132070156
23229.0,95.80396408643539
23239.0,96.16780863761758
23249.0,95.07851861058059
23260.0,92.68161032294894
23269.0,89.1352390934081
23279.0,84.55046492909605
23289.0,79.15091870140984
23300.0,73.54871728043956
23310.0,68.93037600843479
23319.0,67.04395671902394
23329.0,69.83034590373025
23340.0,78.61562530337477
23350.0,93.28143048575394
23359.0,112.03504340476161
23369.0,131.84774812590547
23379.0,149.15865822572613
23390.0,160.58829165622356
23399.0,163.5957396867364
23409.0,156.9474894225098
23419.0,140.87185598656066
23430.0,116.87279678933581
23439.0,87.23439132321543
23449.0,54.412744078254946
23459.0,20.652768331340166
23470.0,-12.07983433334179
23480.0,-42.08474223050865
23489.0,-67.96495233664626
23499.0,-88.64801400480539
23510.0,-103.41133978218713
23520.0,-111.98108097108464
23529.0,-114.60034267734319
23539.0,-111.96273537169012
23549.0,-105.10793041624618
23560.0,-95.35103926536041
23569.0,-84.14593266325497
23579.0,-72.85558942803411
23589.0,-62.56680496769995
23600.0,-54.02042084412174
23610.0,-47.59852348340111
23619.0,-43.3389103020992
23629.0,-40.995907658064844
23640.0,-40.128392942655644
23650.0,-40.18995301128282
23659.0,-40.628234926204705
23669.0,-40.96604853794055
23680.0,-40.82286522944512
23690.0,-39.918725601775236
23699.0,-38.11267859716279
23709.0,-35.42406407882291
23719.0,-31.98697628848739
23730.0,-28.019754726265734
23739.0,-23.920448472807436
23749.0,-20.44484240999844
23759.0,-18.76490978703539
23770.0,-20.242885102128426
23780.0,-25.98149778570279
23789.0,-36.392711023392245
23799.0,-50.9662628373348
23810.0,-68.22462610393715
23820.0,-85.80889008194356
23829.0,-100.76294824798057
23839.0,-110.07729918920406
23849.0,-111.33412989939274
23860.0,-103.16251876729467
23869.0,-85.37435870226
23879.0,-58.89469387102213
23889.0,-25.61940408419206
23900.0,11.8168537831105
23909.0,50.41167704500594
23919.0,87.22722181182532
23929.0,119.77579483809056
23940.0,146.39439963739324
23950.0,166.60445599069507
23959.0,181.074486854688
23969.0,190.80814642150634
23980.0,196.09518111382354
23990.0,196.4003426313307
23999.0,191.3390996471107
24009.0,181.40090828431045
24019.0,167.46511556570246
24030.0,149.87782453904344
24039.0,128.2834069334128
24049.0,102.1962382571261
24059.0,71.47684523485897
24070.0,36.27263737269152
24079.0,-3.262534345932768
24089.0,-46.87885607632445
24099.0,-93.64212842648743
24110.0,-141.38618211534052
24120.0,-186.73676348050205
24129.0,-225.67393165377516
24139.0,-254.2880734046554
24150.0,-269.46516970850655
24160.0,-269.393112279115
24169.0,-253.85627490549155
24179.0,-224.23362964637406
24189.0,-183.1140612641194
24200.0,-133.69454021817756
24209.0,-79.32607675099736
24219.0,-23.36170162538302
24229.0,30.869822096418496
24240.0,80.18192001317814
24250.0,121.7954425787648
24259.0,153.6592683339807
24269.0,174.66006288563565
24280.0,184.62148651114543
24290.0,184.16438297116912
24299.0,174.55485025092278
24309.0,157.55935841649713
24320.0,135.2638768801547
24330.0,109.86982088758928
24339.0,83.51088542732346
24349.0,58.092236774100826
24359.0,35.130606358505645
24370.0,15.606045065587177
24379.0,-0.12085476245131319
24389.0,-12.248031569827809
24399.0,-21.275209159492448
24410.0,-27.611138532871184
24420.0,-31.220189924844416
24429.0,-31.46756187270784
24439.0,-27.23767288950292
24450.0,-17.3556760832283
24460.0,-1.2085296249380222
24469.0,20.75996024526673
24479.0,46.97247675469703
24489.0,75.01890697081332
24500.0,102.08702867841525
24509.0,125.36027925126189
24519.0,142.32232773679874
24529.0,150.91000277244538
24540.0,149.51742771623918
24549.0,136.97931677165835
24559.0,112.65844375224181
24569.0,76.62706369840413
24580.0,29.842271796319793
24590.0,-25.778221118989443
24599.0,-87.43907059469817
24609.0,-151.72918030129813
24620.0,-215.00246669094287
24630.0,-273.7224518889565
24639.0,-324.6727909978018
24649.0,-365.1482564977982
24659.0,-393.25947933792963
24670.0,-408.20681521771235
24679.0,-410.25154200230105
24689.0,-400.3695900461292
24699.0,-379.84530804232355
24710.0,-350.03753309374105
24719.0,-312.36030143747433
24729.0,-268.3854915246854
24739.0,-219.9334989204827
24750.0,-169.04016527459106
24760.0,-117.76571041334054
24769.0,-67.923641052963
24779.0,-20.90265334077638
24790.0,22.291799987691626
24800.0,60.91049730745576
24809.0,94.48804309896984
24819.0,122.83993142564834
24829.0,145.62211610438595
24840.0,161.80852841131477
24849.0,169.96343823724607
24859.0,169.22724083262102
24869.0,160.037960760597
24880.0,144.26226593534759
24890.0,125.11526434185821
24899.0,106.75195888401558
24909.0,93.14936517889328
24920.0,86.7580977614755
24930.0,87.87403108537153
24939.0,94.92443992506374
24949.0,105.16261530508989
24960.0,115.415439720259
24970.0,122.79841499382526
24979.0,125.274757805587
24989.0,121.93681425512008
24999.0,113.00888847524804
25010.0,99.62918169471085
25019.0,83.48761424222447
25029.0,66.41064907235491
25039.0,49.964638637124494
25050.0,35.17756264937206
25060.0,22.5325220050247
25069.0,12.228813843327098
25079.0,4.412664893287793
25090.0,-0.8661598049841095
25100.0,-3.795829036215175
25109.0,-4.726185446195969
25119.0,-3.8962982784303004
25129.0,-1.236582015635726
25140.0,3.594013377951562
25149.0,10.959557418352912
25159.0,20.92367782040529
25169.0,33.03644124426981
25180.0,46.344905715644984
25189.0,59.61978410650051
25199.0,71.71290712299007
25209.0,81.89060945546429
25220.0,89.97482882800342
25230.0,96.24025118204897
25239.0,101.16930446746105
25249.0,105.22791869074256
25260.0,108.73702014676172
25270.0,111.68482962919587
25279.0,113.2734520882751
25289.0,111.53636116062876
25299.0,103.83466105665221
25310.0,88.25954514585455
25319.0,64.79098212774147
25329.0,35.37959082862928
25339.0,3.3188619409628535
25350.0,-27.50615833003589
25359.0,-53.39058637941168
25369.0,-71.47248914722297
25379.0,-79.91501960874727
25390.0,-77.5881767624171
25400.0,-63.83504505919011
25409.0,-38.81148356669216
25419.0,-4.105494834106004
25430.0,36.99317226681066
25440.0,79.7024414209402
25449.0,118.31255345747847
25459.0,147.28225903533715
25469.0,162.73389300875286
25480.0,163.42743975503654
25489.0,150.58826626697532
25499.0,127.08771772500647
25509.0,96.71887726514537
25520.0,63.663058904423494
25530.0,31.946425316794198
25539.0,4.907184272217643
25549.0,-15.168259087312434
25560.0,-27.17896686913622
25570.0,-31.169383678804376
25579.0,-28.18621849783658
25589.0,-20.072742353079523
25600.0,-9.204370850201387
25610.0,1.9003105708543846
25619.0,11.121320462744508
25629.0,17.233829364837717
25639.0,20.0512100178828
25650.0,20.13483092547525
25659.0,18.290732961576087
25669.0,15.147193307166567
25679.0,10.993520354540232
25690.0,5.864532093055935
25700.0,-0.32766113993698615
25709.0,-7.771729331308872
25719.0,-16.752818205983516
25730.0,-27.497662723268245
25740.0,-39.93433954269883
25749.0,-53.59121732704141
25759.0,-67.67785294931305
25769.0,-81.18416777691473
25780.0,-92.94966874176913
25789.0,-101.84223026141797
25799.0,-107.07360929033628
25809.0,-108.45149339263114
25820.0,-106.40065733994682
25829.0,-101.79714884179633
25839.0,-95.7553720091989
25849.0,-89.48928147778139
25860.0,-84.2951631969235
25870.0,-81.50511737428555
25879.0,-82.16902060768199
25889.0,-86.55234313999468
25900.0,-93.91634139962484
25910.0,-102.84737129602539
25919.0,-111.8376821408956
25929.0,-119.64765530607846
25939.0,-125.3170457146104
25950.0,-128.04439351562695
25959.0,-127.1994114925952
25969.0,-122.49763526567591
25979.0,-114.14642487614437
25990.0,-102.85955559415885
25999.0,-89.80486868352651
26009.0,-76.44117264496612
26019.0,-64.1188350052007
26030.0,-53.63203734000329
26040.0,-45.133663190943274
26049.0,-38.446788722014894
26059.0,-33.37506087907457
26070.0,-29.76423736931589
26080.0,-27.43202954451161
26089.0,-26.118350949533955
26099.0,-25.46547751324166
26109.0,-25.040661941436653
26120.0,-24.454104090277053
26129.0,-23.518602264416412
26139.0,-22.311363278732976
26149.0,-21.09447176572204
26160.0,-20.180435851096423
26170.0,-19.84022756146808
26179.0,-20.265759441779654
26189.0,-21.527160465530475
26200.0,-23.513521678092612
26210.0,-25.948379078161086
26219.0,-28.51281735774736
26229.0,-30.924516731758498
26240.0,-32.85899605062028
26250.0,-33.86293523238218
26259.0,-33.44125480188309
26269.0,-31.238864755143425
26279.0,-27.129574500995677
26290.0,-21.191114834957876
26299.0,-13.663935594694692
26309.0,-4.915710940922789
26319.0,4.625961283531121
26330.0,14.533947605951024
26340.0,24.35489162390092
26349.0,33.51360385580065
26359.0,41.28174852122404
26370.0,46.92653379030696
26380.0,49.9907931383997
26389.0,50.50379671827868
26399.0,48.95854051604503
26409.0,46.0949434675186
26420.0,42.680313044975996
26429.0,39.41117953898939
26439.0,36.902858096076244
26449.0,35.684816497568185
26460.0,36.144038925514835
26469.0,38.39452812552847
26479.0,42.143206820868045
26489.0,46.69780320377579
26500.0,51.18230520285241
26510.0,54.84824147043606
26519.0,57.29609183501023
26529.0,58.50664633102243
26540.0,58.71105762795194
26550.0,58.20735172875887
26559.0,57.234503987639584
26569.0,55.94897614027115
26579.0,54.461620571858944
26590.0,52.86722683997242
26599.0,51.25392149155586
26609.0,49.70935140957646
26619.0,48.307207890503705
26630.0,47.0694646042392
26639.0,45.957163288252275
26649.0,44.93017944410576
26659.0,44.04048488432855
26670.0,43.48132803855691
26680.0,43.52312379406102
26689.0,44.31422998108701
26699.0,45.662268092666274
26710.0,47.03843901776125
26720.0,47.89409837249934
26729.0,48.02850515493192
26739.0,47.66469137219097
26749.0,47.19894107823152
26760.0,46.887067785786904
26769.0,46.71671134194034
26779.0,46.5012526731359
26789.0,46.05063625885864
26800.0,45.25423545503138
26810.0,44.046820214635545
26819.0,42.36035324011641
26829.0,40.1382771626484
26840.0,37.37568769825478
26850.0,34.115518372042224
26859.0,30.384773521071583
26869.0,26.083703481127387
26880.0,20.852850971792577
26890.0,14.017904715767047
26899.0,4.738107296982615
26909.0,-7.670834065379194
26919.0,-23.429939221375975
26930.0,-42.1507873095416
26939.0,-62.84308960229046
26949.0,-84.01530980048466
26959.0,-103.84721391241263
26970.0,-120.43667108603454
26980.0,-132.09319831277983
26989.0,-137.59026759789444
26999.0,-136.25870466672473
27010.0,-127.82913766104667
27020.0,-112.01029707522113
27029.0,-88.07385918513607
27039.0,-55.050072759995494
27049.0,-12.754378254113336
27060.0,37.149843197721715
27069.0,91.04311863800669
27079.0,144.19027198851248
27089.0,191.7868238724921
27100.0,229.7162509840665
27109.0,254.98154817345213
27119.0,265.91523572882187
27129.0,262.25548434546977
27140.0,245.1243235537982
27150.0,216.87927122379088
27159.0,180.7923312147532
27169.0,140.552509291754
27180.0,99.67536657653348
27190.0,61.00235845130574
27199.0,26.481246738448757
27209.0,-2.7434821709534423
27219.0,-26.117073520194783
27230.0,-43.55085385392607
27239.0,-55.413058742348625
27249.0,-62.50268775812317
27259.0,-65.90157037444803
27270.0,-66.70544594287549
27279.0,-65.7051127501812
27289.0,-63.12929242517328
27299.0,-58.56524917530372
27310.0,-51.11723373778685
27320.0,-39.776783401889666
27329.0,-23.87821013755324
27339.0,-3.455377037759827
27350.0,20.6037592818501
27360.0,46.59602256582427
27369.0,72.20604145878218
27379.0,94.79707430440544
27389.0,111.64871603929771
27400.0,120.12713279469068
27409.0,117.94050784202592
27419.0,103.50589512083812
27429.0,76.22822117183117
27440.0,36.55716941867795
27450.0,-14.094407510688914
27459.0,-73.44553071931384
27469.0,-138.44288772652305
27480.0,-205.42874381519331
27490.0,-270.4394815131494
27499.0,-329.6074994247757
27509.0,-379.56234241956105
27520.0,-417.73171439500067
27530.0,-442.5019090683951
27539.0,-453.24386715834413
27549.0,-450.23642691732334
27559.0,-434.5302121280803
27570.0,-407.7831063647856
27579.0,-372.0901041542772
27589.0,-329.8581779563427
27599.0,-283.75152987241046
27610.0,-236.58593415662526
27620.0,-191.00042983950232
27629.0,-148.99030304457017
27639.0,-111.64540474125087
27650.0,-79.27000608876926
27660.0,-51.650599761354314
27669.0,-28.14625068320001
27679.0,-7.604214212821552
27689.0,11.602942603085204
27700.0,31.208498870384037
27709.0,52.451835944769805
27719.0,75.57314654757282
27729.0,99.76889067219186
27740.0,123.78900131694495
27749.0,146.8474498883923
27759.0,169.0255046945281
27769.0,190.67397786662917
27780.0,211.3888396949367
27790.0,229.5777950663677
27799.0,242.8735432191018
27809.0,248.86678623558018
27820.0,245.71576653038377
27830.0,232.5690928153224
27839.0,209.79722592540077
27849.0,178.947420062742
27859.0,142.4075227032031
27870.0,102.92537855236559
27879.0,63.190396448089544
27889.0,25.58758464124664
27899.0,-7.910187939067384
27910.0,-35.81612925927791
27919.0,-57.21011635919317
27929.0,-71.74273692264826
27939.0,-79.50166402752886
27950.0,-80.84638647534197
27960.0,-76.3433950986101
27969.0,-66.76017145802957
27979.0,-53.0006410466628
27990.0,-36.0016761148454
28000.0,-16.709818235965603
28009.0,3.8452701133908755
28019.0,24.493460104784873
28029.0,43.90927113749464
28040.0,60.49486123159033
28049.0,72.22284757329653
28059.0,76.9360179083231
28069.0,73.33393426856263
28080.0,61.96031741413822
28090.0,45.32527110795141
28099.0,27.160279211648152
28109.0,11.433762887521084
28120.0,1.571525511038115
28130.0,-0.022371687897882603
28139.0,7.826916845351261
28149.0,25.048201452383577
28160.0,50.41951996817972
28170.0,81.78323365244462
28179.0,116.39268423212793
28189.0,151.3050613943814
28199.0,183.73167625042305
28210.0,211.3353269037894
28219.0,232.45488396272552
28229.0,246.19068283611085
28239.0,252.33324521077424
28250.0,251.20157726994267
28260.0,243.47385239839176
28269.0,230.05663224042507
28279.0,212.0086633809966
28290.0,190.52275805601286
28300.0,166.92385415639316
28309.0,142.58848718239503
28319.0,118.75343525207762
28329.0,96.32734615632243
28340.0,75.85241657309899
28349.0,57.630167239831266
28359.0,41.87797728453782
28369.0,28.78090948221445
28380.0,18.441978252698213
28389.0,10.817010035079882
28399.0,5.642807039700726
28409.0,2.3365924461264886
28420.0,-0.017505926218440184
28430.0,-2.450917233323345
28439.0,-5.761039955105359
28449.0,-10.301159914013853
28460.0,-16.005796826444037
28470.0,-22.511073693521464
28479.0,-29.277475804190146
28489.0,-35.76627307633571
28499.0,-41.657170858965884
28510.0,-46.97358220426625
28519.0,-52.043888517005584
28529.0,-57.35373888126277
28539.0,-63.36636095122758
28550.0,-70.36605531393222
28559.0,-78.37766490546574
28569.0,-87.18540625387614
28579.0,-96.42235222104759
28590.0,-105.67144879832925
28600.0,-114.5072804561875
28609.0,-122.44282980207427
28619.0,-128.86270677726984
28630.0,-133.10097087286798
28640.0,-134.68726378110125
28649.0,-133.56389974054005
28659.0,-130.0883463625417
28669.0,-124.86340286604486
28680.0,-118.55559668935243
28689.0,-111.78899710502883
28699.0,-105.11414521673052
28709.0,-99.02022053353359
28720.0,-93.94396063996524
28730.0,-90.23104353815899
28739.0,-88.04644487618563
28749.0,-87.29255166826331
28760.0,-87.61584737918521
28770.0,-88.5369523273403
28779.0,-89.65348215303895
28789.0,-90.76967228367658
28800.0,-91.8121982112726
28810.0,-92.60300627063786
28819.0,-92.74579223384902
28829.0,-91.74716827226284
28839.0,-89.22845356981931
28850.0,-85.0475145644139
28859.0,-79.29833490416128
28869.0,-72.23859917528605
28879.0,-64.18013911963259
28890.0,-55.39473142894806
28900.0,-46.12491626910037
28909.0,-36.71508991614353
28919.0,-27.72724529104241
28930.0,-19.876090128819502
28940.0,-13.794696387672332
28949.0,-9.827387110942253
28959.0,-7.994134487353825
28969.0,-8.070768186941143
28980.0,-9.655416885134096
28989.0,-12.183398594103995
28999.0,-14.953926178210473
29009.0,-17.233450038695015
29020.0,-18.420510453173076
29029.0,-18.186046146229245
29039.0,-16.512306199987798
29049.0,-13.643705459547864
29060.0,-10.020307806280684
29070.0,-6.199591443348229
29079.0,-2.735257538977844
29089.0,-0.08209851189287895
29100.0,1.4049871877576763
29110.0,1.4950362088004032
29119.0,0.23732316674973888
29129.0,-1.909979767214336
29139.0,-4.180885090424213
29150.0,-5.750587978399464
29159.0,-5.90990894052059
29169.0,-4.113556089400316
29179.0,-0.01026228328070158
29190.0,6.496643809557721
29199.0,15.205600292341282
29209.0,25.588594399612
29219.0,36.7592955602997
29230.0,47.58901827456125
29240.0,57.15799782678431
29249.0,65.3417355898407
29259.0,72.99133424191992
29270.0,81.47375334725744
29280.0,91.94167134499396
29289.0,104.8276038560899
29299.0,119.70631533547214
29309.0,135.41157719278746
29320.0,150.3063229111407
29329.0,162.63920819141762
29339.0,170.87766223201857
29349.0,173.90800241647298
29360.0,171.0746598189439
29370.0,162.12905196177118
29379.0,147.19514096594432
29389.0,126.784577533744
29400.0,101.78700634201756
29410.0,73.35739488570681
29419.0,42.74213502078809
29429.0,11.189758727600928
29440.0,-19.980988160113306
29450.0,-49.27728044421676
29459.0,-75.081719940369
29469.0,-95.89805006241212
29479.0,-110.66434616143457
29490.0,-118.97528170835834
29499.0,-121.12617726571337
29509.0,-117.98317671950579
29519.0,-110.77446263485395
29530.0,-100.91473611111772
29540.0,-89.87356980226978
29549.0,-79.01888449811923
29559.0,-69.43973281312894
29570.0,-61.83972382512271
29580.0,-56.54463545050187
29589.0,-53.58762289753053
29599.0,-52.80077504235567
29609.0,-53.834916749806624
29620.0,-56.114935723124
29629.0,-58.841960885384125
29639.0,-61.10554874691873
29649.0,-62.051947660990194
29660.0,-61.02609162179992
29669.0,-57.65273058485861
29679.0,-51.86422129208983
29689.0,-43.86791922000662
29700.0,-34.033528138366734
29710.0,-22.759348410784693
29719.0,-10.464695390545486
29729.0,2.196143251015929
29740.0,13.993802387153343
29750.0,22.95558919110926
29759.0,26.663293603176786
29769.0,22.956747134198004
29779.0,10.62849100315515
29790.0,-10.197123399904662
29799.0,-38.00308697579347
29809.0,-70.0871041399947
29819.0,-103.00492453507647
29830.0,-133.09866793381283
29839.0,-156.89723322098988
29849.0,-171.294597380388
29859.0,-173.62621948020228
29870.0,-161.87465206727322
29880.0,-135.04888230912098
29889.0,-93.49654294347225
29899.0,-38.93550853100971
29910.0,25.73581477436107
29920.0,96.68661787855096
29929.0,169.44509954521004
29939.0,239.33139875996662
29949.0,302.02311932373664
29960.0,354.0651875356179
29969.0,393.1363899832948
29979.0,418.059307347743
29989.0,428.6725770757415
30000.0,425.67048984416226
30010.0,410.43722240277157
30019.0,384.8597556882681
30029.0,351.0827912608736
30040.0,311.19018342269965
30050.0,266.9566057907854
30059.0,219.91724616918913
30069.0,171.74012988777775
30080.0,124.51308458565553
30090.0,80.59796124202946
30099.0,42.119867639271234
30109.0,10.48331597048053
30119.0,-13.748278266460904
30130.0,-30.630743790539707
30139.0,-40.59632006600628
30149.0,-44.41355985692598
30159.0,-43.232405553185025
30170.0,-38.5182707896486
30180.0,-31.898170318385784
30189.0,-25.013255365861664
30199.0,-19.345357230804957
30210.0,-16.007808902568858
30220.0,-15.631141219494046
30229.0,-18.409405978081146
30239.0,-24.192898197102743
30249.0,-32.54229424917271
30260.0,-42.77663320027787
30269.0,-53.97855722679441
30279.0,-64.87765551890041
30289.0,-73.76744075435083
30300.0,-78.77057257861561
30309.0,-78.4736871769887
30319.0,-72.55320606060788
30329.0,-62.02348913854191
30340.0,-49.050027458524546
30350.0,-36.475337985205904
30359.0,-27.22378984389876
30369.0,-23.754479859269743
30380.0,-27.731207615863767
30390.0,-39.93447531301502
30399.0,-60.2566331130925
30409.0,-87.67333181480359
30419.0,-120.29076461911347
30430.0,-155.59107675902843
30439.0,-190.8138227417868
30449.0,-223.30527147384518
30459.0,-250.76309245478558
30470.0,-271.4213793132489
30479.0,-284.1899954670544
30489.0,-288.67138224583726
30499.0,-285.0235652094544
30510.0,-273.7953084920374
30520.0,-255.87947039181242
30529.0,-232.55335047292223
30539.0,-205.45771421423416
30550.0,-176.44385420314126
30560.0,-147.3369733518819
30569.0,-119.71922858083387
30579.0,-94.82162538089034
30589.0,-73.50809405240261
30600.0,-56.26291508176282
30609.0,-43.18576409034624
30619.0,-34.0606184384013
30629.0,-28.44510662620755
30640.0,-25.67859976778728
30650.0,-24.868560504498888
30659.0,-24.9939546428022
30669.0,-25.09665456431813
30680.0,-24.414172059074787
30690.0,-22.4329479507871
30699.0,-18.92407483788457
30709.0,-13.93137481314267
30720.0,-7.696853486308416
30730.0,-0.6202451448472636
30739.0,6.720920702976658
30749.0,13.607810581931627
30759.0,19.35306120618621
30770.0,23.539751344529545
30779.0,26.174744477348042
30789.0,27.65794100460464
30799.0,28.60885174665178
30810.0,29.671821955568255
30820.0,31.382341428039542
30829.0,34.1254042282684
30839.0,38.17482908700489
30850.0,43.70015551553388
30860.0,50.61182116563372
30869.0,58.360958044170516
30879.0,66.00394087141693
30889.0,72.5654746589047
30900.0,77.34351648830528
30909.0,79.9457495708065
30919.0,80.26696704505993
30929.0,78.58732413010141
30940.0,75.61316213900693
30949.0,72.24390606502632
30959.0,69.18432690218712
30969.0,66.72826074750276
30980.0,64.85753676561059
30990.0,63.48950327229509
30999.0,62.62687967514871
31009.0,62.342768987209965
31020.0,62.7137529481303
31030.0,63.78650198841451
31039.0,65.52953042309652
31049.0,67.73995312506362
31059.0,70.01985385208884
31070.0,71.91663610854448
31079.0,73.10318643888415
31089.0,73.39739281291358
31099.0,72.64938153681553
31110.0,70.72097201071232
31119.0,67.62778659097995
31129.0,63.65494928206895
31139.0,59.282865482571374
31150.0,54.97958625181968
31160.0,51.01388012294844
31169.0,47.38575152521535
31179.0,43.89674324158282
31190.0,40.316213324434216
31200.0,36.53917455672713
31209.0,32.64804082073393
31219.0,28.8792796247026
31229.0,25.546739580486143
31240.0,22.95997119498974
31249.0,21.35309848854242
31259.0,20.823536315410934
31269.0,21.277523411591982
31280.0,22.403007187590266
31290.0,23.707845151792572
31299.0,24.63624053305621
31309.0,24.723155352696633
31320.0,23.714526416313827
31330.0,21.600778700528764
31339.0,18.561583964880843
31349.0,14.845804546038224
31360.0,10.560939873006028
31370.0,5.321147189336484
31379.0,-2.058229424286294
31389.0,-13.351525856601269
31399.0,-30.07943105322893
31410.0,-52.6461285340342
31419.0,-80.06863609723874
31429.0,-110.17210091326791
31439.0,-139.80690020255471
31450.0,-165.03017363974936
31460.0,-181.54544230093117
31469.0,-185.60680855966618
31479.0,-175.18569686763416
31490.0,-150.74391910160884
31500.0,-114.99028855712123
31509.0,-71.72364536128586
31519.0,-24.530097649077682
31529.0,23.91840945815373
31540.0,71.65300600234305
31549.0,116.65089989957204
31559.0,156.5281566781049
31569.0,189.20775513205524
31580.0,213.74745939728734
31589.0,230.2958532117842
31599.0,239.37336988128885
31609.0,241.37529426932696
31620.0,236.6013915160312
31630.0,225.46974600245673
31639.0,208.6242530836304
31649.0,186.8796124314831
31660.0,160.9680478578274
31670.0,131.2019356694213
31679.0,97.50827781804882
31689.0,60.09644362850491
31699.0,20.248994263749207
31710.0,-19.457699057625735
31719.0,-55.54107235646848
31729.0,-84.26698354817754
31739.0,-102.42678178958862
31750.0,-108.12676778809761
31759.0,-101.20420954855787
31769.0,-82.94028447713353
31779.0,-55.364909115617536
31790.0,-20.819561177298176
31800.0,18.045193568910804
31809.0,58.21102102491995
31819.0,96.40913351094378
31830.0,129.3397847503724
31840.0,153.91881483952525
31849.0,167.5680238884072
31859.0,168.57460008917508
31869.0,156.3993247528349
31880.0,131.61621224957884
31889.0,95.44728043306566
31899.0,49.47025088677476
31909.0,-4.088886442488615
31920.0,-61.99169236100678
31930.0,-120.30820839811604
31939.0,-175.36659186003533
31949.0,-224.5701047965054
31960.0,-266.50632373171607
31970.0,-300.4713900106621
31979.0,-325.96853551550424
31989.0,-342.57845638295083
32000.0,-350.150189256195
32010.0,-349.0132027643904
32019.0,-340.0041644587106
32029.0,-324.3410885084541
32039.0,-303.50574675862873
32050.0,-279.20083621716185
32059.0,-253.30231975016505
32069.0,-227.74907481383903
32079.0,-204.3972650267575
32090.0,-184.82385202062295
32100.0,-170.02240105957188
32109.0,-160.0814059158878
32119.0,-154.08981608397193
32130.0,-150.38932195930985
32140.0,-147.01536161839425
32149.0,-142.09602529863935
32159.0,-134.1237591053851
32169.0,-122.12731195853897
32180.0,-105.77399653602052
32189.0,-85.39690150464246
32199.0,-61.913294798624854
32209.0,-36.626439559096916
32220.0,-10.967868812846975
32229.0,13.744914940991409
32239.0,36.468081493524274
32249.0,56.43446833947372
32260.0,72.99106633694322
32270.0,85.39960904138343
32279.0,92.78636038266328
32289.0,94.33325749907061
32300.0,89.61706685069133
32310.0,78.85901011502055
32319.0,62.91532043114653
32329.0,43.0992220418783
32339.0,21.056198497407017
32350.0,-1.2561961525824175
32359.0,-21.607816765984573
32369.0,-37.59821323099562
32379.0,-46.752921964332195
32390.0,-46.65253232612911
32399.0,-35.24102174122338
32409.0,-11.286847974547479
32419.0,25.232326612016642
32430.0,72.96401579776617
32440.0,129.2389427219437
32449.0,190.38283553798811
32459.0,252.24883132823456
32470.0,310.748067952408
32480.0,362.19726202312734
32489.0,403.5565688879309
32499.0,432.6888923546144
32509.0,448.5820135595634
32520.0,451.35689665806154
32529.0,442.0105572252772
32539.0,422.0753930146989
32549.0,393.3884948228155
32560.0,357.9073314484288
32570.0,317.46881096915854
32579.0,273.6850581184825
32589.0,228.17272024072838
32600.0,182.9146815680422
32610.0,140.42995863462883
32619.0,103.63295946184836
32629.0,75.32089774365144
32640.0,57.34150020056706
32650.0,49.86199867240512
32659.0,51.216156657531094
32669.0,58.3756535137499
32679.0,67.73680613785187
32690.0,75.87762093375629
32699.0,80.07242594142258
32709.0,78.54098736510353
32719.0,70.51403672017574
32730.0,56.153757207953795
32740.0,36.3499780664472
32749.0,12.488644988647213
32759.0,-13.745744370002885
32770.0,-40.60900340292247
32780.0,-66.58712042150798
32789.0,-90.55818367427963
32799.0,-111.73962771330855
32809.0,-129.59137432923154
32820.0,-143.82342458794
32829.0,-154.43809426415513
32839.0,-161.684948556138
32849.0,-165.9227534543724
32860.0,-167.5053935741158
32869.0,-166.81784796727436
32879.0,-164.4020265695878
32889.0,-160.96472348455802
32900.0,-157.2252280012472
32910.0,-153.77465069845948
32919.0,-151.04364762341768
32929.0,-149.3119223541237
32940.0,-148.7233388573715
32950.0,-149.33374018631105
32959.0,-151.13140857017507
32969.0,-153.9452522902632
32979.0,-157.32468483504198
32990.0,-160.55265329183874
32999.0,-162.7869692485305
33009.0,-163.1958842121318
33019.0,-161.05567612090738
33030.0,-155.88936527134848
33039.0,-147.6336739549224
33049.0,-136.6932089404496
33059.0,-123.81044150984849
33070.0,-109.85202602576179
33080.0,-95.64306860154132
33089.0,-81.88465521337184
33099.0,-69.14093590534789
33110.0,-57.866630597864244
33120.0,-48.412090315665516
33129.0,-40.975143573696066
33139.0,-35.54034757662796
33149.0,-31.85533185773498
33160.0,-29.46383199782818
33169.0,-27.782679963279932
33179.0,-26.192232835880187
33189.0,-24.130068633391538
33200.0,-21.188971513289847
33210.0,-17.19508283208602
33219.0,-12.249476137126166
33229.0,-6.743378903861892
33240.0,-1.311774099883486
33250.0,3.3285010775885553
33259.0,6.580820503310054
33269.0,8.07579724915946
33280.0,7.708707981096336
33290.0,5.710482470234774
33299.0,2.680463126546944
33309.0,-0.5697489192258103
33319.0,-3.2886050494682535
33330.0,-4.942605523864872
33339.0,-5.212008882787071
33349.0,-3.9740695693629964
33359.0,-1.3255486824578495
33370.0,2.465180058666928
33380.0,7.1017405793815565
33389.0,12.346848234279994
33399.0,17.958075317214586
33410.0,23.58986624616428
33420.0,28.804601389555707
33429.0,33.15837703903753
33439.0,36.24874099744755
33449.0,37.73999072127922
33460.0,37.464840676001764
33469.0,35.569655908837575
33479.0,32.547263618474936
33489.0,29.093720005592417
33500.0,25.890749082187764
33509.0,23.449100643573658
33519.0,22.064014473799862
33529.0,21.861464921278287
33540.0,22.873101398432787
33550.0,25.04636259421561
33559.0,28.15136521610736
33569.0,31.67453720128438
33580.0,34.851796670908236
33590.0,36.92487615232155
33599.0,37.50268343408355
33609.0,36.73598289609137
33619.0,35.15520766750697
33630.0,33.36975058471168
33639.0,31.89907447414342
33649.0,31.143489175883715
33659.0,31.36754825295523
33670.0,32.69686776885645
33679.0,35.17492008263547
33689.0,38.80861970124456
33699.0,43.520938448393586
33710.0,49.066731478892336
33720.0,55.01986300228331
33729.0,60.81981233477945
33739.0,65.77908951497555
33750.0,69.07543323731893
33760.0,69.89084836541741
33769.0,67.70980951865417
33779.0,62.53148143706257
33789.0,54.827359103208934
33800.0,45.37729359110515
33809.0,35.16614625039127
33819.0,25.31937243974647
33829.0,16.957548991793345
33840.0,10.953284644335087
33850.0,7.707987436383639
33859.0,7.075829574464082
33869.0,8.445048317350631
33880.0,10.89469330152509
33890.0,13.38314646933675
33899.0,14.968697830004297
33909.0,15.000846561908691
33920.0,13.205248855154744
33930.0,9.687389070709038
33939.0,4.904872802082585
33949.0,-0.4166346021317432
33959.0,-5.439665807645654
33970.0,-9.386181467592909
33979.0,-11.664074035024662
33989.0,-11.939311628588996
33999.0,-10.168408069481298
34010.0,-6.5966727466350905
34020.0,-1.7212363801842225
34029.0,3.7733538701982297
34039.0,9.104089567256347
34050.0,13.510462073675917
34060.0,16.384132761375056
34069.0,17.36719581588574
34079.0,16.440840717511225
34089.0,14.044941673118592
34100.0,11.16885799684441
34109.0,9.290952106207687
34119.0,10.1119237948768
34129.0,15.141987891369135
34140.0,25.282851333191314
34149.0,40.54849453384586
34159.0,59.99851117588415
34169.0,81.87447739119513
34180.0,103.87408918511571
34190.0,123.47926517273156
34199.0,138.27767970978732
34209.0,146.259641709535
34220.0,146.0745077719281
34230.0,137.18280145235303
34239.0,119.83965970833677
34249.0,94.93816740575318
34259.0,63.80961056926806
34270.0,28.040864659736332
34279.0,-10.681689789734193
34289.0,-50.68497357135855
34299.0,-90.36817377389742
34310.0,-128.25025803946167
34319.0,-163.04053843717531
34329.0,-193.68134759909148
34339.0,-219.30866601587
34350.0,-239.18872597646393
34360.0,-252.74792295651312
34369.0,-259.73558752410605
34379.0,-260.4136689241473
34390.0,-255.57897167417374
34400.0,-246.3335351485639
34409.0,-233.76598408068716
34419.0,-218.7650295387498
34429.0,-201.97870215048954
34440.0,-183.82262096364113
34449.0,-164.56792790789905
34459.0,-144.57641145342902
34469.0,-124.56680339642432
34480.0,-105.70698976127768
34490.0,-89.50120109399501
34499.0,-77.59014613364063
34509.0,-71.474980095605
34520.0,-72.09870295975192
34530.0,-79.42549163413233
34539.0,-92.29823476898218
34549.0,-108.6374442322767
34560.0,-125.79989096864499
34570.0,-140.91489441025593
34579.0,-151.1193819337539
34589.0,-153.72160472414927
34599.0,-146.40323945002535
34610.0,-127.50544016857337
34619.0,-96.3007349885123
34629.0,-53.12516398590303
34639.0,0.6428663414357023
34650.0,62.6565320257677
34660.0,129.6717440469406
34669.0,197.7259102778869
34679.0,262.5364772295604
34690.0,320.0219011637812
34700.0,366.74958805274906
34709.0,400.22664163942017
34719.0,419.0513069215218
34729.0,422.9682478098212
34740.0,412.86232805035786
34749.0,390.658892946826
34759.0,359.0696015777811
34769.0,321.23256957610005
34780.0,280.38022846290903
34789.0,239.57802150851742
34799.0,201.4645569819218
34809.0,167.97425693916335
34820.0,140.1548449090004
34830.0,118.19404619027284
34839.0,101.61917783088231
34849.0,89.52317126342427
34860.0,80.72076514613127
34870.0,73.85319108373221
34879.0,67.5203271668952
34889.0,60.49277742694147
34899.0,51.944449632272175
34910.0,41.56466072007925
34919.0,29.507702533204256
34929.0,16.30108879257761
34939.0,2.8041373039648985
34950.0,-9.880233077280543
34959.0,-20.68658311144259
34969.0,-28.991008895745306
34979.0,-34.85099118666532
34990.0,-38.90043023592554
35000.0,-42.04465398114148
35009.0,-45.21203308390806
35019.0,-49.216054951268546
35030.0,-54.63428090109207
35040.0,-61.702331792921576
35049.0,-70.30446081016085
35059.0,-80.07223761263127
35069.0,-90.51782516191628
35080.0,-101.11627110628548
35089.0,-111.29843385621112
35099.0,-120.40982861411466
35109.0,-127.74978595279146
35120.0,-132.7298153322378
35130.0,-135.0372904377353
35139.0,-134.6561618089985
35149.0,-131.75300714278754
35160.0,-126.57864479013357
35170.0,-119.46345850865438
35179.0,-110.83142504653037
35189.0,-101.15965163032381
35200.0,-90.92806077923812
35210.0,-80.64584679209943
35219.0,-70.95830528801359
35229.0,-62.716439718522956
35239.0,-56.85912240637816
35250.0,-54.107629864022734
35259.0,-54.67927326141639
35269.0,-58.220732253368226
35279.0,-63.95240210153992
35290.0,-70.87211131159609
35300.0,-77.8955120588737
35309.0,-83.92864116925004
35319.0,-87.96053712362901
35330.0,-89.21803999892508
35340.0,-87.30234277043934
35349.0,-82.21511093231739
35359.0,-74.28470363596716
35369.0,-64.07595993188542
35380.0,-52.335914696968786
35389.0,-39.94909956209193
35399.0,-27.866824485125207
35409.0,-17.01400380737754
35420.0,-8.164148744279546
35429.0,-1.7899011239105933
35439.0,2.0047398914768513
35449.0,3.390574321959996
35460.0,2.672301436784738
35470.0,0.2626907705959234
35479.0,-3.2635841860950063
35489.0,-7.179778840977989
35500.0,-10.691811735972705
35510.0,-13.023489128179378
35519.0,-13.52424245980445
35529.0,-11.84463452254398
35539.0,-8.088421816544114
35550.0,-2.815395678564405
35559.0,3.092608176430586
35569.0,8.62481926158304
35579.0,12.887016285161428
35590.0,15.374059852700109
35599.0,16.111871803806974
35609.0,15.548615374926069
35619.0,14.310778527495128
35630.0,13.029733572737946
35640.0,12.279929605197351
35649.0,12.540980367545753
35659.0,14.155718228131837
35670.0,17.317168639101567
35680.0,22.0655675283076
35689.0,28.260260832527347
35699.0,35.559251841470406
35709.0,43.44341383412073
35720.0,51.261511148838416
35729.0,58.27906183482265
35739.0,63.76562667413992
35749.0,67.13499784139061
35760.0,68.07657086852296
35770.0,66.59962493946871
35779.0,62.99401397409125
35789.0,57.78342015427545
35800.0,51.68380014349498
35810.0,45.473985636099044
35819.0,39.771565274697465
35829.0,34.89488234189771
35840.0,30.936068505460483
35850.0,27.922631521047784
35859.0,25.8914378397453
35869.0,24.867099152510306
35879.0,24.83464469396003
35890.0,25.74905873551509
35899.0,27.55643447499794
35909.0,30.17584080975858
35919.0,33.432065251838466
35930.0,37.00793229682577
35940.0,40.48335403943149
35949.0,43.43765717958772
35959.0,45.55252872045465
35970.0,46.68961697409379
35980.0,46.918847900022776
35989.0,46.457816275422864
35999.0,45.53248065895714
36009.0,44.229983903503715
36020.0,42.42922880043808
36029.0,39.86576399226656
36039.0,36.281020242229374
36049.0,31.518448077516776
36060.0,25.525851193039003
36069.0,18.358067571815045
36079.0,10.213655019725834
36089.0,1.4463378811879861
36100.0,-7.439377084501639
36110.0,-15.791915853471219
36119.0,-22.940274703608996
36129.0,-28.48188813776071
36140.0,-32.43676303120183
36150.0,-35.022947847248545
36159.0,-36.33548972177615
36169.0,-36.37613643488938
36179.0,-35.339460312505736
36190.0,-33.685347973417066
36199.0,-31.8974332293642
36209.0,-30.2568977962759
36219.0,-28.81207817681124
36230.0,-27.425329352085935
36239.0,-25.836805134881118
36249.0,-23.803032984383208
36259.0,-21.23296241498736
36270.0,-18.166649333128056
36280.0,-14.634617701816657
36289.0,-10.585386541579851
36299.0,-5.947383170669877
36310.0,-0.7097856384091262
36320.0,5.113949219633439
36329.0,11.717002283081735
36339.0,19.851481232905492
36349.0,30.879869581953447
36360.0,46.10438396373535
36369.0,65.75314161810152
36379.0,88.53236293251538
36389.0,111.97142526145885
36400.0,132.99676934906546
36410.0,148.36921313129477
36419.0,155.06718058930912
36429.0,150.63974854587278
36440.0,133.4483360174959
36450.0,102.87579163249629
36459.0,59.58388438737568
36469.0,5.658280399574386
36480.0,-55.543035639729716
36490.0,-119.76858481867
36499.0,-182.31797947523046
36509.0,-238.5243020896585
36519.0,-284.26775954726446
36530.0,-316.4024393890842
36539.0,-332.97553539753187
36549.0,-333.231162371976
36559.0,-317.485368211849
36570.0,-286.9948159126693
36580.0,-243.88133357545593
36589.0,-191.03241289867674
36599.0,-131.85822562680005
36610.0,-69.93001411891917
36620.0,-8.640525972234213
36629.0,49.03195984419019
36639.0,100.67410170443841
36649.0,144.5375026366399
36660.0,179.59631569083626
36669.0,205.54288352752963
36679.0,222.68522885904366
36689.0,231.75328881642858
36700.0,233.7073975137003
36709.0,229.63624204031083
36719.0,220.71262470814233
36729.0,208.1224043364721
36740.0,192.9761905235614
36750.0,176.28692348001766
36759.0,159.00612198236246
36769.0,142.00871463629417
36780.0,125.98746252739804
36790.0,111.34609801246904
36799.0,98.19535877856863
36809.0,86.48059048733965
36819.0,76.1539265956373
36830.0,67.2199994813441
36839.0,59.587705961525984
36849.0,52.90207809306997
36859.0,46.57838346902521
36870.0,40.05106950293694
36879.0,33.109389082708084
36889.0,26.18631646010112
36899.0,20.41774360603201
36910.0,17.330327486515028
36920.0,18.285690870184148
36929.0,23.995699222734327
36939.0,34.289301973933895
36950.0,48.10781383170959
36960.0,63.67436027064289
36969.0,78.79891183019672
36979.0,91.22311573810403
36989.0,98.86932427623174
37000.0,99.92668368343517
37009.0,92.8603370981696
37019.0,76.50216727547038
37029.0,50.2484401080321
37040.0,14.240228403962567
37050.0,-30.547171937232307
37059.0,-82.27456812440599
37069.0,-138.28827724090618
37080.0,-195.35061936152178
37090.0,-250.0592481897629
37099.0,-299.30028686986054
37109.0,-340.5708385513685
37120.0,-372.13397923977374
37130.0,-393.07555674434013
37139.0,-403.30942623660866
37149.0,-403.4778114658628
37159.0,-394.7050857343457
37170.0,-378.3173567334122
37179.0,-355.70170382955416
37189.0,-328.30442080494026
37199.0,-297.59266651424076
37210.0,-264.90857167631475
37220.0,-231.350591071327
37229.0,-197.78564599413417
37239.0,-164.92715646540339
37250.0,-133.39099559186582
37260.0,-103.71926775530623
37269.0,-76.37327791761437
37279.0,-51.68650664884548
37289.0,-29.80662930935477
37300.0,-10.68066089081211
37309.0,5.886003654192132
37319.0,20.1176163296007
37329.0,32.17644201616736
37340.0,42.166967012479354
37349.0,50.24753060372961
37359.0,56.76189427117903
37369.0,62.27074794456283
37380.0,67.47230158954885
37390.0,73.08674423143142
37399.0,79.72373000334872
37409.0,87.74047504460353
37420.0,97.17324021381012
37430.0,107.77318570716552
37439.0,119.0422485149017
37449.0,130.2172021882027
37459.0,140.32577294755092
37470.0,148.42185398991305
37479.0,153.8979361945473
37489.0,156.64258480642025
37499.0,156.92497706548423
37510.0,155.16391057339837
37519.0,151.83414507798273
37529.0,147.5136100620625
37539.0,142.8592775769863
37550.0,138.4442004444683
37560.0,134.62870850545167
37569.0,131.60399150582202
37579.0,129.52037390893037
37590.0,128.52539174099024
37600.0,128.66777670832494
37609.0,129.7621937034494
37619.0,131.31599275233842
37629.0,132.5698891347955
37640.0,132.67082178498288
37649.0,130.9320538403994
37659.0,127.05586201334158
37669.0,121.20196500810337
37680.0,113.88611109952734
37690.0,105.78576320065201
37699.0,97.55207995380201
37709.0,89.69070306262255
37720.0,82.51327814133298
37730.0,76.11709538840705
37739.0,70.3584050185814
37749.0,64.84647709594411
37760.0,59.04641462874894
37770.0,52.54390892376126
37779.0,45.350011797964626
37789.0,37.989226405114564
37799.0,31.264909554646938
37810.0,25.886760542188956
37819.0,22.20611148370393
37829.0,20.142706342192454
37839.0,19.27375250042486
37850.0,19.026785324786477
37860.0,18.870945239983648
37869.0,18.40299095448219
37879.0,17.332841776581247
37890.0,15.454835083990352
37900.0,12.64222493318067
37909.0,8.821982319785773
37919.0,3.9187371546829053
37929.0,-2.144490699107915
37940.0,-9.337140644759454
37949.0,-17.41134260850469
37959.0,-25.912337434435667
37969.0,-34.28142637136803
37980.0,-41.98141048570011
37989.0,-48.631983941729445
37999.0,-54.10691638048204
38009.0,-58.50792757157555
38020.0,-62.03107240366445
38030.0,-64.83719014654253
38039.0,-67.0108507154164
38049.0,-68.61988056755
38060.0,-69.81077571974443
38070.0,-70.83128721269874
38079.0,-71.95659520446708
38089.0,-73.40283953750703
38099.0,-75.25181008151954
38110.0,-77.34157117396609
38119.0,-79.2041473665018
38129.0,-80.20541696182474
38139.0,-79.83620441528446
38150.0,-77.92001724472975
38159.0,-74.61999597891482
38169.0,-70.32399152020092
38179.0,-65.51585871755708
38190.0,-60.67804903197389
38200.0,-56.231543792852094
38209.0,-52.50099342993927
38219.0,-49.69084561970002
38230.0,-47.885414275840894
38240.0,-47.100534554193004
38249.0,-47.360698826083016
38259.0,-48.70870453992288
38269.0,-51.098024968959436
38280.0,-54.25588704268936
38289.0,-57.671929971824056
38299.0,-60.77689888790667
38309.0,-63.23288162956847
38320.0,-65.19955610159074
38330.0,-67.44962958438796
38339.0,-71.21264051189846
38349.0,-77.73262253075458
38360.0,-87.76646942555472
38370.0,-101.32445279810791
38379.0,-117.6944611888764
38389.0,-135.5592687465132
38400.0,-153.12205212748762
38410.0,-168.32594986386968
38419.0,-179.16170799442057
38429.0,-183.9066508319349
38439.0,-181.23104812494128
38450.0,-170.28087895781948
38459.0,-150.80133164393922
38469.0,-123.21489729866072
38479.0,-88.5898587951948
38490.0,-48.546721689371694
38500.0,-5.1245887300296795
38509.0,39.4321170818854
38519.0,82.94053696281483
38530.0,123.5019655511715
38540.0,159.61680966768944
38549.0,190.20166609883944
38559.0,214.57421126415088
38569.0,232.47756600975023
38580.0,244.1384334885815
38589.0,250.24876168581142
38599.0,251.74221282540702
38609.0,249.39897271212718
38620.0,243.57883343191725
38629.0,234.37232822998592
38639.0,222.00793162686492
38649.0,207.04047113854685
38660.0,190.1697516908602
38670.0,172.0036783914767
38679.0,153.03682324982594
38689.0,133.77350343739298
38700.0,114.80249667128504
38710.0,96.75500316723395
38719.0,80.18903002300189
38729.0,65.45861789473263
38739.0,52.61956235490073
38750.0,41.41833028445929
38759.0,31.37534194656661
38769.0,21.917852569120964
38779.0,12.496772141433203
38790.0,2.6650119638025545
38799.0,-7.857102038330429
38809.0,-19.125977844153823
38819.0,-30.952136380422033
38830.0,-42.88429777501999
38840.0,-54.15571952486485
38849.0,-63.62425877776287
38859.0,-69.77386507245336
38870.0,-70.8532364302154
38880.0,-65.2632080812688
38889.0,-52.15720771102917
38899.0,-31.921738213586348
38909.0,-6.220607687300016
38920.0,22.34603468748545
38929.0,50.70679644538981
38939.0,75.75540150410494
38949.0,94.7168010758281
38960.0,105.36909901685631
38970.0,106.05394935550558
38979.0,95.56799065171703
38989.0,73.14495160824653
39000.0,38.61839478068921
39010.0,-7.332227993698394
39019.0,-62.98922601592062
39029.0,-125.56825657560246
39040.0,-191.42563960457673
39050.0,-256.44743081850925
39059.0,-316.4760736194852
39069.0,-367.71632666029313
39079.0,-407.1313536582607
39090.0,-432.73321891065325
39099.0,-443.64273672195867
39109.0,-439.99893421269144
39119.0,-422.90176459426124
39130.0,-394.3722103780909
39140.0,-357.1493998020743
39149.0,-314.2802518221755
39159.0,-268.67918720144263
39170.0,-222.84649220624414
39180.0,-178.75941033742816
39189.0,-137.82663270697418
39199.0,-100.83243784951104
39209.0,-67.90179685489707
39220.0,-38.58718670008654
39229.0,-12.146994723759505
39239.0,12.071078745662764
39249.0,34.36922764597397
39260.0,54.70215375496894
39269.0,72.84930747177319
39279.0,88.57942580692747
39289.0,101.73862470089271
39300.0,112.2918513949382
39310.0,120.36316775945215
39319.0,126.28651214626997
39329.0,130.5999822995061
39340.0,133.8956912581087
39350.0,136.5821067830795
39359.0,138.7581557021359
39369.0,140.30401904939777
39379.0,141.07732575010942
39390.0,141.05155686593054
39399.0,140.35501539012645
39409.0,139.23532606363165
39419.0,137.92964266557672
39430.0,136.46433286055077
39439.0,134.5741525820076
39449.0,131.91834129314995
39459.0,128.4613907306042
39470.0,124.6623450632949
39480.0,121.30081033705977
39489.0,119.11869807440867
39499.0,118.57157182538269
39510.0,119.8054579906677
39520.0,122.72777195560413
39529.0,127.00287108227894
39539.0,132.0090669216266
39549.0,136.9070768728262
39560.0,140.81676527476307
39569.0,142.97097492232072
39579.0,142.79327087084204
39589.0,139.95420183043382
39600.0,134.45670986190817
39610.0,126.70620758847286
39619.0,117.45923837753978
39629.0,107.64208952786339
39640.0,98.1528031668065
39650.0,89.72129125406668
39659.0,82.84197520018103
39669.0,77.80829230190056
39680.0,74.79991027018872
39690.0,73.8738785355149
39699.0,74.84205640725561
39709.0,77.20323627319134
39719.0,80.22047642886106
39730.0,83.05636041296476
39739.0,84.87771042493307
39749.0,84.92189179571564
39759.0,82.54101854986294
39770.0,77.24040741767952
39780.0,68.73127790803196
39789.0,57.022235671748305
39799.0,42.53931264028996
39810.0,26.18153627936529
39820.0,9.217172672654957
39829.0,-6.9534516744513235
39839.0,-21.057194737793875
39849.0,-32.1435440925383
39860.0,-39.68587561764407
39869.0,-43.607891443980094
39879.0,-44.282443473306934
39889.0,-42.490961531615014
39900.0,-39.2713850283684
39909.0,-35.67474937706113
39919.0,-32.57013107744002
39929.0,-30.58110419229672
39940.0,-30.128507795850375
39950.0,-31.609633497124904
39959.0,-35.74262991661897
39969.0,-43.72895611415976
39980.0,-56.70649418182802
39990.0,-74.71930045412404
39999.0,-96.21682146620545
40009.0,-118.56617447732437
40019.0,-138.94384639527115
40030.0,-154.85714386614936
40039.0,-164.27703600733963
40049.0,-165.7347040647985
40059.0,-158.49184691678866
40070.0,-142.65471325725542
40079.0,-119.14465187007865
40089.0,-89.54071633086751
40099.0,-55.84492397801845
40110.0,-20.25294438124271
40120.0,15.008992919150103
40129.0,47.82747504388823
40139.0,76.36773305933924
40150.0,99.16076390502953
40160.0,115.03567318833996
40169.0,123.06961133203919
40179.0,122.78948478449733
40189.0,114.53276664141441
40200.0,99.58679407846203
40209.0,79.9097047391782
40219.0,57.65986652519879
40229.0,34.87899758333882
40240.0,13.383099764787728
40250.0,-5.337451016130101
40259.0,-20.28677689435517
40269.0,-31.060467718947905
40280.0,-37.778567767132095
40290.0,-40.93847638527957
40299.0,-41.28862955206027
40309.0,-39.727399487448686
40320.0,-37.202247643267
40330.0,-34.623823820013264
40339.0,-32.815727514157494
40349.0,-32.47855218648288
40359.0,-34.13302206637862
40370.0,-38.052367551553196
40379.0,-44.22497247281606
40389.0,-52.3667068600351
40399.0,-61.97342770297423
40410.0,-72.3812967033307
40420.0,-82.82497851727916
40429.0,-92.55204421862629
40439.0,-101.00119530659825
40450.0,-107.92712322648862
40460.0,-113.43287480484315
40469.0,-118.01269937729951
40479.0,-122.57022319827787
40489.0,-128.20634317647625
40500.0,-135.7660454074238
40509.0,-145.3806109776979
40519.0,-156.1658019302759
40529.0,-166.17741124735306
40540.0,-172.83821341829653
40549.0,-173.81798305627893
40559.0,-167.82450370926813
40569.0,-154.78816942879607
40580.0,-135.56689280618988
40590.0,-111.6228259756468
40599.0,-84.79559013831582
40609.0,-57.029945517486546
40620.0,-30.09722510797707
40630.0,-5.517231605787458
40639.0,15.303965679256567
40649.0,30.956743502034648
40659.0,40.1262778597439
40670.0,41.88113816536868
40679.0,36.001175294073846
40689.0,23.191972624191553
40699.0,5.09001035845134
40710.0,-15.944913875959342
40719.0,-37.18086243684345
40729.0,-55.906966130431506
40739.0,-69.76923051498429
40750.0,-77.0117928963058
40760.0,-76.63932923159352
40769.0,-68.46896496893953
40779.0,-53.02070138707025
40790.0,-31.31245522881155
40800.0,-4.678756937142414
40809.0,25.36986599598663
40819.0,57.26527998985155
40829.0,89.4506171050372
40840.0,120.41821131411601
40849.0,148.7935835631502
40859.0,173.4837434250899
40869.0,193.807637596378
40880.0,209.50712385229534
40890.0,220.6289708475134
40899.0,227.36445524321465
40909.0,229.92476310965935
40920.0,228.48975025789483
40930.0,223.26054462488005
40939.0,214.58129282432915
40949.0,203.00258127406627
40960.0,189.21720975066265
40970.0,173.9364861944292
40979.0,157.78685745017546
40989.0,141.25456246622892
40999.0,124.69530092461065
41010.0,108.38994888956796
41019.0,92.58403889762013
41029.0,77.48239407539702
41039.0,63.205961039270164
41050.0,49.70912275957467
41060.0,36.73358620154178
41069.0,23.94952756284854
41079.0,11.225363936765353
41090.0,-1.2688686731044307
41100.0,-13.20278167779729
41109.0,-24.208249167437142
41119.0,-33.85384790054818
41129.0,-41.67215876729432
41140.0,-47.359933058337454
41149.0,-50.95929163715398
41159.0,-52.83781021686615
41169.0,-53.538264135963736
41180.0,-53.649905458754674
41189.0,-53.75260723531189
41199.0,-54.39434058129135
41209.0,-56.03454676919763
41220.0,-58.93449044465082
41230.0,-63.043767922996665
41239.0,-67.91538453555154
41249.0,-72.64413059629939
41260.0,-75.87405565304586
41270.0,-75.96324519542326
41279.0,-71.30492227087521
41289.0,-60.6880427317327
41299.0,-43.58462194676135
41310.0,-20.31468679134526
41319.0,7.946395507699806
41329.0,39.33135609055366
41339.0,71.5345933100702
41350.0,102.02903260221198
41359.0,128.21363140806992
41369.0,147.56215877710054
41379.0,157.82633950569536
41390.0,157.26588280529532
41400.0,144.8297442171217
41409.0,120.22763546939193
41419.0,83.8974253612279
41430.0,36.940948125551074
41440.0,-18.897067077804294
41449.0,-81.21089050871267
41459.0,-146.96426432287717
41469.0,-212.65569018516868
41480.0,-274.6248009312025
41489.0,-329.4146413617775
41499.0,-374.0762959591865
41509.0,-406.37139584684803
41520.0,-424.8995780773574
41530.0,-429.1619451732926
41539.0,-419.5460420860143
41549.0,-397.2392989529057
41560.0,-364.0799623213695
41570.0,-322.347093659276
41579.0,-274.5394913276696
41589.0,-223.23179699551184
41600.0,-171.01181188381116
41610.0,-120.36625965400984
41619.0,-73.42240414738599
41629.0,-31.682152659705153
41639.0,4.039886455333326
41650.0,33.4884297260876
41659.0,56.83125221983431
41669.0,74.57227715517783
41679.0,87.43767928089302
41690.0,96.2404275093307
41700.0,101.81954452507065
41709.0,105.06908681170289
41719.0,106.96615845463687
41730.0,108.5203792420235
41740.0,110.64303990894413
41749.0,113.99129486023729
41759.0,118.85216248436898
41769.0,125.1037365360679
41780.0,132.26897660811738
41789.0,139.66034122832983
41799.0,146.57007185267068
41809.0,152.42472551984918
41820.0,156.85350623359216
41829.0,159.68651644435542
41839.0,160.9174186169222
41849.0,160.6326647580957
41860.0,158.90566923700857
41870.0,155.71666381355556
41879.0,150.9864872795778
41889.0,144.70220742898292
41900.0,136.99802670514958
41910.0,128.11897839615372
41919.0,118.34703760454791
41929.0,108.02008136067963
41939.0,97.66305180648637
41950.0,88.06526622508636
41959.0,80.14805541422638
41969.0,74.74901102609634
41979.0,72.55416994610856
41990.0,74.11236591769554
41999.0,79.69484990001241
42009.0,89.02845589459571
42019.0,101.15777482831764
42030.0,114.56050268038845
42040.0,127.4318804010592
42049.0,138.00062504603997
42059.0,144.7894966659665
42070.0,146.8066053319666
42080.0,143.6636569721234
42089.0,135.56119817932762
42099.0,123.11295787080739
42109.0,107.12405860487932
42120.0,88.47847044960308
42129.0,68.15458610278633
42139.0,47.25685952923696
42149.0,26.959346432594838
42160.0,8.357972367638489
42170.0,-7.68681922787019
42179.0,-20.63864240415369
42189.0,-30.29514431055002
42200.0,-36.75878519804587
42210.0,-40.39247432762358
42219.0,-41.7533317345143
42229.0,-41.52068417546429
42240.0,-40.45652248524163
42250.0,-39.3750928009788
42259.0,-39.05326167704568
42269.0,-40.09288593170578
42279.0,-42.81703174119944
42290.0,-47.21410668648527
42299.0,-52.887663315647806
42309.0,-59.06324883882716
42319.0,-64.75571493845628
42330.0,-69.05032834948405
42340.0,-71.33644711388115
42349.0,-71.43249999003228
42359.0,-69.62340795196802
42370.0,-66.57100951360721
42380.0,-63.080403738020706
42389.0,-59.85551460769282
42399.0,-57.392786131619665
42409.0,-55.993531517878345
42420.0,-55.78167159458967
42429.0,-56.69982596704349
42439.0,-58.54359647771047
42449.0,-61.045616015092094
42460.0,-63.92927525595483
42469.0,-66.87562534742524
42479.0,-69.47536435395537
42489.0,-71.28371929483697
42500.0,-71.96875416950101
42510.0,-71.41941711920009
42519.0,-69.74449404873576
42529.0,-67.24308440921367
42540.0,-64.42058367166632
42550.0,-61.96011801622971
42559.0,-60.518506835440014
42569.0,-60.42933566878104
42579.0,-61.543659936867
42590.0,-63.25086286273815
42599.0,-64.51150588409568
42609.0,-63.85789470203131
42619.0,-59.5274381957128
42630.0,-49.815724201291665
42639.0,-33.5208590813037
42649.0,-10.32370349217847
42659.0,18.953734033456158
42670.0,52.26075364359403
42680.0,86.48080153041656
42689.0,117.88031671260856
42699.0,142.76901866726757
42710.0,158.14887447627063
42720.0,162.0910751363135
42729.0,153.80122397879992
42739.0,133.57711525403082
42749.0,102.7964686983846
42760.0,63.827783408646994
42769.0,19.723140616259105
42779.0,-26.24243963161229
42789.0,-70.99876602609777
42800.0,-111.97532989622881
42810.0,-147.26178019438717
42819.0,-175.65787250033466
42829.0,-196.65076671483152
42840.0,-210.329590272325
42850.0,-217.2156076534381
42859.0,-218.07061630096894
42869.0,-213.80200937850125
42880.0,-205.43154123395217
42890.0,-193.9897684959941
42899.0,-180.36460758208545
42909.0,-165.26104277164907
42919.0,-149.28321940173296
42930.0,-133.00291513796375
42939.0,-116.93925730332627
42949.0,-101.48948453308557
42959.0,-86.8765234611843
42970.0,-73.15487190441847
42980.0,-60.28984575415098
42989.0,-48.278153323894536
42999.0,-37.21944640530545
43010.0,-27.261800191835636
43020.0,-18.462500065731902
43029.0,-10.698561571929446
43039.0,-3.7088294496118697
43049.0,2.7519862593037256
43060.0,8.717742414185755
43069.0,13.881830930106782
43079.0,17.601787632676775
43089.0,18.976762514123553
43100.0,16.966190314469095
43109.0,10.654275298620938
43119.0,-0.34228961571750977
43129.0,-15.54640171474425
43140.0,-33.54191517205209
43150.0,-52.099911974202065
43159.0,-68.40844853719773
43169.0,-79.37127123883111
43180.0,-81.9670877758195
43190.0,-73.66006266053802
43199.0,-52.84558304586309
43209.0,-19.228740955086785
43219.0,26.05216805155958
43230.0,80.63102788565375
43239.0,141.29980974765877
43249.0,204.39188348183094
43259.0,266.1233240331686
43270.0,322.9127549999483
43279.0,371.6545968052017
43289.0,409.9292621517205
43299.0,436.1522765617993
43310.0,449.6156334244426
43320.0,450.3950974806529
43329.0,439.2098546186797
43339.0,417.3174746664583
43350.0,386.36800671766787
43360.0,348.0854216870898
43369.0,303.88794604566857
43379.0,254.83511569224012
43389.0,202.0948616078173
43400.0,147.54619030710734
