46.54
222.54
432.41
444.57
293.92
207.34
205.99
181.05
132.37
111.77
105.44
69.75
10.53
-28.19
-32.33
-32.95
-52.26
-73.08
-86.13
-113.99
-151.64
-165.86
-162.69
-167.59
-179.5
-187.22
-180.13
-156.14
-131.85
-119.04
-111.69
-103.04
-87.54
-68
-65.64
-86.59
-106.24
-112.95
-121.26
-132.84
-128.53
-101.73
-64.75
-27.54
12.92
62.88
104.99
103.8
56.7
2.14
-30.89
-51.63
-71.02
-66.49
-36.57
-23.11
-24.69
-10.14
-9.43
-52.39
-86.38
-67.43
-34.86
-32.67
-54.59
-78.54
-90.41
-94.49
-109.71
-128.19
-122.86
-104.34
-103.16
-115.25
-122.1
-129.38
-141.56
-140.47
-117.84
-93.34
-86.36
-85.95
-73.86
-62.34
-58.6
-43.56
-16.87
8.89
39.63
72.66
90.04
97.7
112.83
127.73
131.32
136.76
156
179.38
200.26
218.73
224.04
215.36
203.81
187.02
166.39
149.32
137.85
142.11
163.48
179.79
170.91
150.02
153.8
170.01
149.2
102.63
78.72
79.22
80.72
79.61
81.25
88.39
95.39
87.17
67.57
54.62
46.76
34.65
27.07
37.31
57.97
68.98
60.93
34.8
-0.25
-22.4
-23.04
-22.58
-34.48
-53.85
-68.6
-57.81
-41.1
-72.29
-114.95
-99.47
-108.02
-206.3
-237.15
-101.5
39.18
45.92
-8.81
-21.09
1.02
19.78
36.81
49.9
46.45
40.19
34.37
6.38
-21.75
-19.39
-18.98
-36.86
-33.35
1.38
19.97
-11.71
-60.92
-80.34
-80.61
-94.31
-105.43
-77.93
-30.81
-12.86
-28.14
-50.17
-66.67
-79.3
-88.18
-89.98
-83.27
-71.89
-71.04
-83.09
-85.41
-73.98
-66.76
-63.37
-57.2
-53.88
-46.35
-22.38
5.58
20.87
20.63
6.43
-1.05
20.88
43.61
30.81
8.2
7.17
12.9
12.97
17.07
29.45
41.91
52.25
63.55
62.58
39.61
13.14
5.13
16.88
23.43
7.04
-1.78
14.65
20.12
3.11
-7.89
-7.32
-4.24
3.32
14.46
27.32
41.87
53.81
57.66
47.65
21.94
-7.03
-18.98
-11.96
-6.01
-12.65
-15.18
0.37
16.68
16.76
6.62
-1.97
0.41
8.75
9.59
4.47
2.2
28.87
122.32
228.61
220.78
84.73
-66.63
-142.6
-142.76
-121.65
-111.1
-103.51
-96.84
-92.46
-82.4
-65.17
-44.14
-28.29
-27.06
-28.13
-23.07
-29.18
-42.33
-35.11
-17.33
-15.68
-19.24
-11.84
-5.96
-10.13
-16.4
-14.85
3.48
26.84
29.94
16.58
13.04
28.7
36.59
12.08
-8.05
14.08
43.54
45.3
31.74
17.69
11.86
19.56
25.27
18.45
19.34
34.89
44.09
41.92
38.5
38.09
40.56
41.38
41.55
44.64
41.74
26.04
5.75
-12.09
-26.04
-30.33
-26.63
-21.31
-10.29
-4.51
-18.05
-18.77
22.94
68.61
76.95
54.65
16
-9.8
4.83
27.87
33.26
36.36
27.7
-0.95
-26.1
-34.46
-28.85
-23.4
-26.32
-21.85
-15.61
-32.16
-58.68
-73.99
-79.71
-75.24
-68.28
-73.1
-80.51
-79.5
-73.79
-67.59
-66.15
-64.07
-36.54
8.55
29.24
28.03
28.5
17.43
-9.45
-10.56
43.45
104.45
110.14
82.19
63.76
54.38
65.47
102.24
127.23
127.45
125.47
112.49
72.36
45.91
64.74
88.98
93.45
100.99
109.19
93.82
53.82
5.01
-32.62
-44.95
-39.75
-38.09
-55.4
-85.28
-98.85
-83.48
-55.78
-26.17
-2.62
-2.66
-26.5
-57.94
-89.23
-116.3
-136.5
-159.44
-188.38
-210.68
-215.52
-204.65
-188.03
-170.22
-145.7
-114.66
-90.88
-83.52
-83.14
-73.59
-55.5
-40.98
-20.99
14.67
41.43
47.07
58.4
75.97
74.12
63.22
69.43
93.57
121.18
131.77
108.55
54.51
-0.09
-6.71
37.49
74.82
83.63
92.68
101.7
93.79
84.77
91.17
99.46
96.54
86.85
78
78.98
86.64
87.82
94.42
114.79
111.64
68.9
40.59
55.65
67.53
48.6
28.54
31.51
44.88
52.25
71.76
113.15
132.93
112.54
96.72
95.57
76.28
41.68
5.74
-34.08
-62.97
-62.24
-43.51
-30.85
-22.95
-4.2
15.61
10.41
-22.12
-55.04
-59.8
-40.38
-33.06
-59.24
-87.19
-74.07
-42.66
-50.54
-90.29
-108.68
-102.42
-107.08
-117.43
-107.05
-97.48
-116.07
-137.64
-141.05
-145.77
-154.54
-144.94
-112.58
-72.89
-43.63
-26.35
-31.55
-87.63
-156.37
-140.2
-14.02
135.14
199.22
168.74
123.74
107.84
97.8
76.75
56.23
43.16
30.97
17.2
5.16
-4.43
-13.71
-22.65
-30.28
-36.75
-42.55
-47.75
-52.09
-59.23
-80.11
-116.78
-148.55
-165.15
-187.08
-223.07
-251.48
-258.05
-258.3
-270.2
-289.91
-298.35
-284.73
-262.44
-242.94
-209.27
-156.67
-112.72
-85.71
-49.5
5.29
61.22
112.55
165.99
215.57
255.23
288.71
316.48
336.18
352.91
368.44
342.62
183.73
-135.14
-444.34
-523.25
-397.05
-278.29
-244.35
-211.76
-137.5
28.84
404.53
841.12
954.82
761.05
626.75
632.41
608.4
526.1
465.54
433.52
392.66
342.82
300.98
265.98
229.77
193.6
160.93
130.76
86.57
-9.29
-151.54
-261.66
-295.77
-291.49
-286.94
-292.58
-306.45
-314.45
-307.21
-292.13
-289.6
-306.83
-312.84
-290.11
-271.89
-274.76
-270.18
-239.73
-197.56
-158.98
-117.85
-63.64
-11.43
15.21
18.38
14.1
1.62
-25.85
-50.69
-51.3
-31.31
-2.56
33.31
64.97
67.41
42.63
22.59
21.26
26.71
33.17
48.53
81.7
125.44
150.89
145.59
135.5
135.11
128.16
114.69
112.44
124.81
143.42
159
167.85
174.07
175.18
167.57
164.56
176.16
185.99
170.12
129.44
89.35
66.65
56.9
51.29
43.84
32.04
14.72
-12.51
-49.61
-86.13
-110.01
-115.65
-114.11
-123.04
-142.51
-168.39
-195.71
-204.48
-188.18
-164.36
-124.02
-88.57
-149.5
-260.48
-350.8
-508.48
-632.34
-522.43
-216.66
198.17
546.28
574.45
391.25
300.43
280.92
140
-85.23
-192.84
-120.44
11.9
91.59
105.92
83.38
27.89
-64.54
-159.21
-218.71
-249.71
-274.58
-301.73
-329.72
-351.64
-360.32
-354.25
-335.31
-302.03
-253.48
-205.54
-176.69
-157.88
-130
-88.77
-43.41
-11.36
-3.52
-6.26
1.47
24.62
51.73
71.95
88.99
112.5
141.7
159.21
157.42
155.59
164.67
182.06
209.07
225.82
207.8
169.74
139.93
128.33
130.98
132.71
131.35
139.77
144.49
134.07
133.07
148.25
165.34
184.86
188.86
166.05
159.4
182.23
189.16
167.52
146.24
139.66
133.01
110.02
84.73
81.44
89.32
81.01
55.18
24.95
-3.51
-20.47
-16.32
-7.01
-8.91
-7.87
-0.83
14.99
65.98
137.55
172.57
93.83
-54.21
-14.66
238.34
360.67
254.18
167.16
186.79
181.52
63.95
-140.21
-343.94
-471.48
-500.23
-451.41
-365.96
-272.79
-189.7
-142.75
-142.51
-173.11
-216.53
-250.78
-255.34
-240.34
-230.86
-227.17
-220.26
-214.27
-200.63
-172.86
-152.96
-142.55
-123.16
-104.7
-94.13
-79.65
-64.16
-42.83
-5.18
19.54
11.3
8.67
28.39
33.73
14.66
2.57
11.68
18.45
4.16
-10.52
-1.85
21.42
43.42
55.9
53.67
49.68
56.84
58.83
48.43
46.43
58.48
73.82
91.65
112.8
130.39
135.98
133.21
135.96
147.45
155.22
151.86
146.7
145.41
140.45
134.59
135.77
133.69
118.89
98.11
78.33
66.56
67.09
66.73
52.71
35.4
29.77
33.39
40.42
58.94
83.08
82.47
60.25
47.29
36.42
11.43
-10.12
-12.17
-0.9
9.15
6.51
-3.98
-10.75
-15.44
-19.14
-17.96
-21.49
-33.7
-38.19
-30.9
-24.83
-25.4
-29.78
-30.5
-23.36
-20.09
-26.33
-28.1
-60.03
-167.68
-213.12
-63.53
87.65
96.39
154.24
322.41
415.07
391.63
340.91
286.35
230.58
170.41
59.21
-109.91
-233.6
-226.12
-139.36
-67.72
-48.58
-80.4
-142.15
-205.52
-253.32
-277.86
-278.55
-267.38
-266.52
-287.98
-318.59
-338.1
-342.52
-336.76
-316.66
-281.86
-258.93
-260.36
-254.15
-225.43
-197.17
-178.96
-159.72
-137.72
-119.16
-97.78
-62.34
-20.54
-0.77
-12.35
-18.09
8.26
41.09
62.48
82.28
99.52
108.22
114.77
118.23
113.57
108.2
109.7
115.72
121.33
123.73
123.41
125.11
133.12
144.44
154.75
166.29
171.53
155.12
128.35
121.83
136.52
145.52
136.55
118.87
103.18
93.54
86.04
76.73
73.24
81.16
89.41
87.7
68.67
37.56
28.29
47.84
56.3
43.63
41.45
56.86
68.95
73.04
74.14
69.51
63.47
66.93
80.08
89.74
92.21
98.44
109.62
109.26
83.82
44.51
13.04
-1.82
-5.32
-12.26
-28.94
-43.4
-47.19
-42.53
-31.87
-28.7
-42.21
-47.82
-26.99
-3.75
-3.71
-27.14
-55.52
-66.56
-61.68
-57.09
-57.22
-65.51
-82.17
-89.37
-86.31
-99.98
-122.47
-120.83
-99.37
-76.55
-58.21
-48.11
-46.14
-43.77
-21.56
37.26
144.05
251.7
235.81
129.98
125.66
221.2
253.14
160.81
-6.94
-162.53
-240.94
-265.03
-279.6
-259.52
-180.47
-98.35
-69.63
-78.99
-94.8
-120.08
-151.79
-162.16
-151.33
-151.02
-169.51
-180.85
-168.6
-148.43
-138.39
-131.71
-116.69
-93.92
-57.81
-5.84
36.02
49.51
53.15
59.77
61.86
57.51
48.15
40.06
42.24
49.47
54.98
59.33
62.68
67.17
72.37
77.38
90.04
108.03
114.9
108.33
98.96
90.23
81.78
84.81
116.69
165.96
199.05
202.85
183.2
146.27
104.41
75.02
70.05
91.78
130.09
162.62
176.43
178.07
165.25
127.79
86.07
68.01
65.29
61.97
56.18
43.07
16.62
-26.16
-76
-110.02
-121.24
-114.56
-85.3
-53.4
-56.46
-78.07
-70.16
-33.28
-1.63
9.37
1.2
-24.94
-55.58
-65.84
-48.55
-30.32
-41.63
-79.31
-129.16
-189.65
-247.28
-281.18
-284.89
-260.61
-225
-207.12
-202.48
-181.11
-151.33
-142.13
-139.99
-118.65
-89.94
-71.52
-56.06
-33.02
1.6
43.71
75.58
74.81
35.37
-17.42
-57
-85.11
-90.02
-9.35
173.4
280.22
163.23
50.89
179.91
344.88
310.62
203.15
182.72
194.78
166.92
129.39
113.33
101.9
82.3
63.03
49.46
12.23
-110.11
-301.1
-425.89
-422.17
-379.61
-371.29
-375.14
-359.9
-329.47
-298.74
-275.71
-253.72
-218.99
-174.85
-138.29
-110.58
-79.43
-38.6
5.8
35.54
53.78
88.06
130
156.68
177.86
196.4
203.46
204.6
207.66
215.81
231.3
254.3
277.31
283.02
260.12
223.67
199.47
183.52
161.31
147.2
152.87
167.2
175.23
164.99
144.73
136
140.69
152.15
164.84
163.03
148.41
150.95
168.98
166.32
142.64
122.1
107.08
94.5
84.91
73.75
63.56
58.26
48.04
21.58
-10.37
-21.95
-12.9
-7.93
-13.51
-18.38
-18.72
-15.33
-12.93
-15.47
-13.6
-7.24
-13.33
-33.94
-52.78
-56.2
-46.25
-36.55
-34.18
-39.87
-55.36
-69.44
-71.16
-72.8
-80.58
-82.56
-80.35
-87.31
-96.9
-89.04
-68.63
-54.49
-46.46
-49.28
-72.42
-94.63
-95.63
-88.91
-99.7
-126.14
-125.87
-80.98
-29.52
-8.84
-23.77
-58.38
-101.08
-118.2
-26.59
146.1
212.72
133.14
69.92
73.17
59.3
15.58
-13.89
-27.27
-45.54
-67.7
-84.41
-96.97
-109.75
-122.07
-131.78
-139.8
-146.97
-152.95
-157.54
-160.95
-163.53
-181.48
-256.2
-385.54
-488.97
-529.04
-556.48
-595.59
-611.61
-584.12
-529.83
-467.41
-398.23
-320.55
-242.1
-175.91
-128.66
-97.64
-76.15
-57
-25.42
29.22
89.83
133.24
170.37
220.52
272.5
305.45
317.07
315.44
310.12
314.66
328.38
327.43
311.52
307.86
313.65
311.04
298.01
278.04
267.23
274.79
281.38
271.22
259.23
266.33
282.52
272.06
231.08
207.73
221.48
232.55
218.53
192.94
162.97
134.9
120.62
122.16
131.83
139.3
140.73
138.44
123.35
92.3
71.28
72.02
69.86
62.17
68.77
73.86
54.45
29.67
25.14
38.49
54.97
62.71
59.55
51.28
37.45
15.02
-3.47
-2.98
5.01
-0.09
-10.9
-14.11
-20.18
-30.07
-27.36
-15.85
-12.84
-24.41
-46.89
-73.03
-92.22
-97.77
-95.29
-83.85
-63.13
-63.77
-93.49
-112.76
-119.15
-139.79
-156.39
-151.58
-152.34
-164.46
-161.4
-145.31
-143.14
-156.51
-157.71
-138.59
-125.59
-129.59
-137.41
-145.82
-149.61
-134.65
-103.51
-64.91
-14.59
67.71
202.61
332.05
344.36
256.41
189.82
171.13
144.54
100.45
65.14
41.11
16.11
-10.46
-50.05
-139.57
-264.84
-348.59
-386.92
-442.62
-502.77
-515.03
-495.56
-478.08
-451.34
-410.24
-373.53
-349.04
-333.28
-318.49
-295.16
-260.03
-216.42
-165.28
-104.42
-46.18
-13.04
-4.69
5.7
31.04
56.58
81.83
125.27
170.05
185.16
185.68
198.67
219.72
234.47
239.82
240
240.62
249.47
277.66
313.11
311.95
266.22
225.51
206.43
176.42
137.2
116.6
110.78
111.68
123.26
133.09
130.33
123.52
118.48
119.48
131.17
143.13
144.65
135.31
119.79
112.96
120.05
117.08
91.05
72.16
81.71
94.73
90.79
85.37
88.67
85.24
69.26
54.8
52.91
57.34
51.52
38.15
39.49
49.39
45.1
41.03
51
47.27
19.51
1.79
13.11
33.27
42.56
38.57
24.54
9.6
1.14
-0.26
0.24
-11.85
-32.64
-33.23
-19.19
-33.74
-69.9
-69.94
-38.03
-41.82
-87.32
-119.35
-126.45
-130.81
-131.35
-117.53
-79.03
-12.39
60.95
107.5
101.96
34.61
-83.08
-216.17
-317.8
-345.57
-291.39
-214.06
-186.4
-203.84
-205.49
-167.11
-113.07
-51.83
26.29
98.28
128.23
112.91
87.93
103.45
163.27
232
298.23
334.91
296.64
219.64
172.57
148.3
113.3
73.14
42.45
16.92
-9.69
-34.85
-56.24
-75.48
-93.45
-109.58
-123.9
-136.49
-147.63
-157.12
-165.21
-171.81
-176.84
-180.62
-183.65
-185.86
-186.98
-187.01
-186.22
-184.49
-181.74
-178.25
-174.37
-170.34
-165.77
-160.59
-154.87
-148.34
-141.48
-134.65
-127.65
-120.23
-112.61
-104.8
-96.9
-88.85
-80.77
-72.67
-64.47
-56.35
-48.26
-40.17
-32.26
-24.38
-16.63
-8.98
-1.5
5.77
12.85
19.78
26.46
32.95
39.22
45.26
51
56.54
61.85
66.82
71.55
76.01
80.2
84.15
87.79
91.12
94.25
97.08
99.63
101.93
103.95
105.72
107.2
108.43
109.45
110.21
110.7
110.97
111.04
110.86
110.45
109.85
109.06
108.1
106.93
105.6
104.13
102.49
100.62
98.63
96.55
94.29
91.96
89.45
86.93
84.23
81.41
78.61
75.73
72.7
69.7
66.54
63.48
60.29
56.96
53.51
50.19
47.4
44.48
41.07
37.69
34.41
30.92
27.74
24.92
22.21
18.91
15.43
12.34
9.71
6.89
4.13
1.46
-0.76
-3.15
-5.72
-8.33
-10.65
-13.01
-15.53
-17.81
-19.68
-21.46
-23.02
-24.69
-26.5
-28.47
-30.14
-31.39
-32.55
-33.86
-35.27
-36.13
-36.78
-37.97
-39.05
-39.6
-39.93
-40.57
-40.98
-41.25
-41.5
-41.61
-41.77
-41.78
-41.73
-41.66
-41.4
-41.2
-41
-40.61
-40.15
-39.71
-39.2
-38.77
-38.41
-38
-37.22
-36.64
-36.03
-35.18
-34.04
-33.13
-32.19
-31.1
-29.73
-28.36
-27.54
-26.95
-25.95
-24.94
-23.73
-22.64
-21.8
-21.06
-19.81
-18.57
-17.52
-16.54
-15.43
-14.32
-13.23
-12.21
-11.07
-10.08
-9.09
-8.12
-7.17
-6.24
-5.32
-4.36
-3.42
-2.62
-1.73
-1.04
-0.62
-0.28
0.43
1.42
2.26
2.95
3.6
4.42
5.02
5.59
6.14
6.78
6.08
-46.05
-213.75
-395.18
-442.55
-389.44
-302.66
-256.32
-345.08
-432.89
-334.22
-173.02
-109.65
-76.66
-14.3
27.11
32.62
45.52
89.13
137.34
165.75
186.87
203.67
199.69
186.27
187.53
196.98
200.12
204.62
211.43
209.33
203.39
202.17
196.98
175.96
141.68
111.98
93.02
66.66
37.01
39.74
83.48
137.1
171.13
192.48
224.48
254.49
253.1
228.01
204.55
192.19
193.11
204.45
214.93
215.02
200.77
181.34
167.45
149.63
122.91
105.61
100.09
92.56
88.24
92.01
91.07
75.97
51.26
37.06
41.81
37.47
4.08
-40.05
-76.56
-99.57
-101.18
-93.83
-101.35
-105.54
-82.31
-59.94
-71.03
-106.16
-129.68
-114.88
-80.73
-71.09
-95.46
-126.56
-132
-94.13
-41.11
-36.89
-82.06
-99.02
-63.13
-30.67
-34.02
-59.69
-98.37
-138.88
-147.45
-117.12
-93.79
-97.6
-95.52
-72.62
-50.95
-56.16
-103.58
-172.08
-211.7
-207.99
-194.91
-199.34
-210.28
-202.34
-171.8
-143.81
-147.87
-170.88
-160.61
-109.84
-76.87
-97.04
-130.75
-127.8
-102.9
-100.39
-114.84
-111.2
-96.12
-92.45
-90.45
-46.16
46.36
46.78
-102.94
-205.7
-182.59
-109.94
50.88
266.58
371.73
297.41
72.45
-167.09
-211.05
-64.02
55.48
65.03
60.28
70.05
53.96
34.95
38.13
36.04
22.85
23.67
33.63
27.35
7.37
-3.73
-0.51
3.72
9.07
28.77
56.24
69.9
69.21
74.34
90.39
101.78
99.59
90.82
76.74
56.53
49.05
61.98
82.95
102.44
99.32
68.68
45.09
37.51
25.06
19.11
30.3
36.58
42.43
71.44
102.16
101.5
79.28
61.98
58.63
58.84
45.54
21.29
9.89
18.37
15.49
-31.08
-83.08
-51.84
54.29
128.04
145.46
163.81
181.93
166.15
122.97
71.03
20.49
-8.76
0.66
32.1
51.65
47.28
34.69
47.74
107.05
166.13
168.56
165.95
225.33
273.27
230.52
158.52
127.54
111.85
79.45
44.68
21
0.38
-22.61
-44.04
-62.02
-78.53
-94.27
-108.32
-120.61
-131.64
-141.49
-150.1
-157.38
-163.65
-168.78
-173
-176.23
-178.55
-180.04
-180.68
-180.61
-179.84
-178.41
-176.4
-173.78
-170.64
-167.09
-162.98
-158.52
-153.7
-148.55
-143.07
-137.32
-131.36
-125.16
-118.78
-112.32
-105.67
-98.96
-92.15
-85.32
-78.43
-71.55
-64.64
-57.82
-51.02
-44.27
-37.63
-31.05
-24.63
-18.26
-12.06
-6
-0.14
5.6
11.15
16.55
21.78
26.78
31.58
36.15
40.52
44.74
48.66
52.45
55.99
59.32
62.41
65.34
67.97
70.43
72.66
74.69
76.56
78.12
79.52
80.74
81.76
82.53
83.17
83.61
83.71
83.6
83.46
83.56
83.54
82.78
81.88
81.13
80.18
79.08
77.75
76.45
75
73.4
71.78
69.96
68.07
66.19
64.12
62.13
59.97
57.64
55.16
52.79
50.83
48.78
45.95
43.27
41.39
39.32
36.62
33.56
30.84
28.85
27.12
24.89
22.19
19.71
17.16
14.71
12.44
10.03
8.05
6.19
4.11
1.85
-0.41
-2.42
-4.11
-5.49
-7.13
-9.34
-11.21
-12.62
-13.85
-15.08
-16.37
-18.09
-19.66
-20.65
-21.58
-22.56
-23.41
-24.2
-25.41
-26.49
-27.11
-27.54
-28.22
-28.76
-29.24
-29.53
-29.89
-30.18
-30.41
-30.58
-30.69
-30.74
-30.74
-30.68
-30.58
-30.42
-30.21
-29.96
-29.73
-29.45
-29.06
-28.64
-28.3
-27.8
-27.21
-26.77
-26.18
-25.62
-25.03
-24.35
-23.66
-23
-22.33
-21.63
-20.92
-20.2
-19.46
-18.65
-17.95
-17.12
-16.42
-15.64
-14.73
-13.95
-13.23
-12.39
-11.67
-10.84
-10.07
-9.31
-8.55
-7.8
-7.13
-6.33
-5.62
-4.91
-4.28
-3.54
-2.88
-2.23
-1.6
-0.98
-0.45
0.2
0.76
1.3
1.83
2.33
2.82
3.28
3.67
4.1
4.5
4.76
4.89
5.18
5.9
6.46
6.74
6.75
6.99
6.91
6.63
6.72
7.23
7.53
7.61
7.81
8.05
8.21
8.22
8.34
8.44
8.53
8.53
8.52
8.5
8.52
8.47
8.28
-5.67
-68.06
-179.17
-260.93
-245.97
-174.3
-128.15
-120.75
-115.74
-104.93
-107.46
-124.28
-129.53
-104.55
-59.65
-46.96
-153.33
-373.58
-527.94
-480.57
-340.59
-262.23
-191.3
54.17
481.4
809.86
809.44
588.98
381.36
271.94
222.68
187.16
166.56
183.31
218.91
231.94
226.35
223.05
204.41
163.44
131.12
119.41
116.34
115.45
105.82
82.4
66.86
72.28
81.81
91.06
108.93
118.54
101.26
76.46
70.48
72.66
60.42
40.76
30.29
25.12
12.53
-9.5
-31.63
-41.3
-37.2
-36.25
-48.64
-57.88
-54.08
-57.58
-89.03
-146.27
-214.12
-274.71
-310.64
-328.06
-358.83
-387.42
-359.13
-291.65
-246.95
-224.78
-194.05
-156.71
-127.31
-103.77
-79.14
-54.82
-33.93
-15.19
3.15
20.18
34.61
47.32
59.34
70.25
79.63
87.76
94.88
100.76
105.74
110.17
113.94
116.55
118.02
119.19
120.23
120.12
118.7
117.11
115.65
113.47
110.44
107.56
104.52
100.68
96.45
92.21
87.72
82.75
77.79
73.24
68.54
63.23
57.84
52.65
47.45
42.13
36.83
31.64
26.45
21.32
16.25
11.32
6.46
1.69
-2.94
-7.44
-11.7
83.79
455.26
900.17
933.68
634.95
474.22
480.96
421.96
298.67
218.65
172.23
110.51
41.7
-12.59
-58.23
-104.89
-149.34
-187.63
-221.82
-253.84
-282.69
-307.89
-330.08
-349.88
-367.05
-381.53
-393.23
-402.56
-409.78
-415.28
-419.16
-420.8
-420.33
-418.3
-415
-410.23
-404.05
-396.66
-388.27
-378.8
-380
-441.91
-606.11
-785.69
-829.23
-735.92
-628.52
-558.89
-497.7
-438.77
-410.69
-416.1
-428.25
-446.61
-482.4
-488.44
-413.59
-304.23
-228.19
-174.21
-109.82
-42.38
13.85
63.48
113.05
159.97
201.38
239.45
275.59
308.7
337.83
363.66
387.34
408.88
427.83
444.16
458
469.61
479.03
486.75
492.66
496.28
498.13
498.44
497.28
494.53
490.47
485.11
478.56
470.8
462.06
452.31
441.67
430.19
417.94
405.03
391.38
376.98
362.31
347.64
332.55
316.66
300.48
284.27
267.89
251.33
234.67
218.03
201.38
184.77
168.38
152.2
136.16
119.94
103.95
88.47
73.42
58.4
43.23
38.42
110.39
355.76
692.44
846.19
730.68
554.46
463.6
400.82
307.45
212.08
139.2
73.31
3.94
-60.98
-117.48
-169.76
-219.58
-265.1
-305.89
-343.1
-377.02
-407.33
-434.22
-457.97
-478.7
-496.47
-511.52
-523.91
-533.78
-541.2
-546.44
-549.52
-550.53
-549.59
-546.67
-542.19
-536.69
-529.59
-520.67
-510.45
-499.31
-487.03
-473.66
-459.41
-444.34
-428.58
-412.09
-395.16
-377.83
-359.91
-341.16
-322.13
-303.28
-284.44
-265.47
-246.52
-227.25
-207.28
-187.55
-168.69
-150.08
-131.05
-112.53
-94.86
-77.3
-59.41
-42.04
-25.25
-8.95
7.13
22.65
37.57
52
66.04
79.45
74.69
8.03
-112.03
-190.03
-181.9
-144.67
-114.04
-73.23
-17.18
30.54
54.16
75.68
117.58
162.1
190.41
210.77
233.85
260.84
275.99
265.1
254.46
275.48
315.84
349.11
363.47
360.39
350.25
342.61
342.06
348.72
360.03
373.17
389.2
405.3
405.17
378.31
345.33
329.8
327.31
328.63
333.66
332.42
312.67
288
278.59
275.48
260.48
236.39
217.14
208.17
207.39
212.06
222.11
233.17
231.06
206.23
168.75
136.77
117.97
110.33
109.66
97.9
58.19
4.94
-18.81
-17.39
-47.76
-35.32
59.75
13.49
-197.21
-252.09
-59.09
105.31
46.34
-80.54
-71.48
-0.01
-18.64
-97.98
-143.15
-135.56
-93.06
-45.85
-14.83
7.52
15.76
-7.37
-50.81
-86.89
-105.99
-116.67
-128.38
-143
-157.87
-175.09
-192.62
-198.35
-186.32
-164.14
-148.23
-157.48
-185.49
-191.01
-161.91
-142.58
-149.39
-147.29
-133.76
-138.49
-153.13
-151.79
-146
-149.75
-139.06
-108.61
-98.67
-121.09
-146.2
-160.4
-161.84
-157.84
-166.02
-171.77
-155.81
-136.87
-122.77
-99.7
-79.35
-75.92
-72.82
-60.04
-50.1
-48.46
-51.42
-52.63
-47.92
-46.69
-53.55
-59.15
-63.18
-66.46
-57.5
-31.8
-5.4
-0.02
-12.81
-22.55
-26.24
-25.93
-14.14
7.78
37.86
70.35
85.67
77.98
57.31
35.2
29.2
43.59
59.62
66.93
67.96
57.77
33.74
13.01
8.76
13.13
26.54
54.89
80.52
89.04
82.99
57.48
25.9
22.62
37.87
38.49
32.84
39.49
55.93
71.89
71.43
59.32
63.05
78.05
79.55
74.14
74.11
71.37
60.42
49.74
46.79
46.2
61.11
60.58
-58.82
-178.14
-48.93
149.25
58.68
-131.9
9.22
298.04
290.77
143.55
162.16
193.64
75.58
-58.32
-92.4
-62.93
-17.63
33.44
76.8
90.54
75.5
53.91
32.49
7.79
-11.03
-17.84
-24.66
-38.34
-38.58
-15.36
4.42
0.37
-17.27
-31.05
-41.36
-58.5
-65.73
-49.78
-39.7
-44.68
-44.73
-45.99
-54.44
-57.97
-53.39
-38.98
-21.76
-16.96
-12
5.23
16.26
21.34
27.24
2.27
-51.03
-72.38
-49.91
-29.19
-26.61
-29.28
-32.75
-28.5
-4.42
24.89
31.1
14.95
0.34
-4.22
-3.97
4.71
24.74
36.91
16.14
-29.15
-64.25
-69.59
-54.48
-35.96
-11.83
21.22
44.73
48.39
42.78
36.68
34.14
37.96
46.1
50.23
40.15
19.81
1.01
-20.65
-46.97
-53.76
-34.5
-21.53
-28.13
-38.59
-50.18
-56.26
-39.59
-13.59
-1.53
2.26
7.39
7.52
-2.75
-14.9
-15.03
-5.75
-2.77
-3.99
9.32
35.49
56.98
69.17
68.72
50.48
26.5
10.47
5.7
15.07
31.39
42.36
50.8
56.82
50.22
36.03
27.88
23.81
16.18
11.68
23.05
42.65
39.58
6.14
-19.91
-22.18
-29.87
-43.11
-35.79
-20.16
-16.25
-14.56
-10.53
-1.15
19.7
32.54
12.62
-42.76
-109.27
-139.32
-96.46
-23.73
-3.52
-4.8
22.77
3.18
-89.81
-150.3
-105.54
4.09
82.29
90.26
85.76
100.16
89.57
43.15
-6.33
-54.85
-100.34
-120.49
-128.89
-161.13
-199.98
-209.56
-199.11
-188.26
-184.44
-194.95
-203.07
-182.82
-149.92
-133.87
-123.86
-97.15
-62.22
-37.82
-28.29
-25.52
-14.15
13.34
38.4
40.63
45.72
96.57
169.75
203.33
193.5
189.89
224.2
280.59
319.2
317.21
283.64
238.4
188.48
141.82
113.67
95.54
61.1
21.7
17.2
34.64
21.04
-26.33
-67.05
-84.22
-85.11
-58.97
12.11
103.73
165.79
182.19
162.15
105.01
23.79
-44.23
-74.59
-65.32
-22.53
32.49
66.06
58.34
8.33
-63.92
-119
-140.94
-144.99
-141.15
-132.58
-117.02
-72.83
11.1
95.53
121.38
69.27
-18.11
-60.17
0.33
123.43
193.25
227.63
366.39
533.6
535.09
418.12
322.86
257.76
216.22
204.83
176.4
105.29
15.55
-69.66
-132.38
-171
-198.68
-209.85
-200.72
-204.91
-246.02
-296.58
-332.83
-358.38
-373.97
-385.19
-390.88
-376.94
-361.14
-364.64
-358.23
-324.92
-291.57
-263.43
-230.33
-207.49
-204.09
-208.36
-213.07
-215.04
-197.82
-157.79
-123.62
-106.68
-89.74
-75.85
-67.43
-39.25
10.85
55.37
89.26
113.84
88.87
-21.3
-155.69
-197.04
-133.85
-67.52
-45.5
-27.36
7.73
39.86
61.02
81.3
103.57
123.16
139.19
154.07
168.16
180.55
190.95
199.55
207.06
213.64
218.99
223.01
225.95
227.96
228.89
228.97
228.15
226.64
224.59
221.6
217.55
213.2
208.54
203.02
197.06
191.06
184.48
177.2
169.66
162.36
155
146.79
137.87
129.34
121.3
112.94
104.31
95.73
87.39
79.27
71.2
62.84
54.25
45.89
56.81
132.72
259.57
328.03
291.94
233.32
210.76
193.48
153.2
110.79
84.71
63.26
35.97
6.5
-18.09
-33.61
-43.9
-47.87
-24.99
2.08
-43.01
-78.83
82.17
302.27
282.98
108.72
30.53
29.34
-14.93
-85.15
-127.41
-154.28
-189.79
-226.38
-253.8
-276.72
-299.52
-320.08
-336.61
-350.55
-362.72
-372.63
-380.11
-385.67
-389.34
-391.23
-391.41
-389.94
-387.11
-382.86
-377.3
-370.56
-362.7
-353.84
-344.02
-333.38
-322.03
-310.08
-297.58
-284.47
-270.33
-255.88
-241.47
-226.88
-211.84
-196.63
-181.26
-166.02
-150.84
-135.61
-120.23
-105.08
-90.13
-75.12
-60.17
-45.61
-31.37
-17.34
-3.61
9.68
22.61
35.19
47.38
59.06
70.37
71.74
31.57
-65.05
-160.56
-184.96
-157.47
-135.39
-119.19
-79.26
-18.74
30.28
53.98
79.76
129.52
174.83
184.92
183.29
198.23
217.26
232.15
251.74
272.64
280.94
268.91
250.67
248.42
266.59
298.19
327.06
336.45
341.91
360.89
376.72
376.75
367.78
357.8
358.13
367
360.66
333.59
312.81
320.61
345.88
353.44
323.02
269.08
216.77
185.38
179.5
182.08
179.55
172.41
161.16
144.47
121.42
92.52
62.08
40.07
35.53
45.52
59.36
70.02
67.92
47.48
24.76
15.73
17.42
33.33
63.05
59.66
-8.01
-42
40.85
94.37
-3.27
-75.93
26.2
135.53
82.24
-25.15
-59.24
-78.21
-130.05
-166.15
-169.59
-163.88
-157.78
-161.09
-179.27
-193.36
-188.87
-189.41
-222.66
-266.37
-279.25
-268.71
-265.88
-270.57
-270.46
-266.25
-258.77
-250.63
-247.24
-241.15
-222.53
-185.42
-140.13
-135.7
-176.34
-183.02
-138.91
-110.76
-108.54
-95.86
-73.44
-53.36
-35.61
-28.31
-40.78
-65.71
-89.03
-114.08
-145.44
-173.4
-207.85
-258.29
-279.34
-237.66
-179.39
-148.69
-128.16
-96.88
-64.84
-40.94
-19.82
2.4
23.23
41.35
58.05
73.73
87.95
100.63
112.05
122.35
131.46
139.43
146.32
152.24
157.2
161.21
164.42
166.79
168.4
169.28
169.52
169.1
168.07
166.5
164.44
161.87
158.97
155.84
152.25
148.08
143.76
139.24
134.14
128.74
123.3
117.75
111.97
116.35
172.45
301.05
422.22
466.03
475.63
461.28
368.57
234.8
150.28
125.26
121.21
107.56
78.53
69.19
41.16
-92.71
-140.01
129.95
427.55
409.17
243.65
133.77
-48.75
-367.7
-613.66
-654.6
-604.2
-564.57
-510.56
-437.22
-392.07
-379.26
-366.65
-339.98
-303.3
-265.41
-227.73
-193.24
-175.2
-173.67
-172.55
-163.7
-149.2
-131.05
-112.78
-100.52
-90.91
-69.46
-35.48
-11.6
-14.77
-37.67
-62.08
-78.17
-85.21
-74.09
-47.63
-29.62
-19.66
-4.63
2.2
-9.71
-24.37
-21.7
-0.55
25.86
49.98
67.14
66.82
46.8
17.36
-10.97
-28.17
-31.24
-32.59
-41.73
-46.16
-34.24
-14.22
5.51
19.38
23.62
30.72
47.74
53.2
31.24
9.09
19.18
46.96
61.29
57.32
41.63
12.74
-23.18
-41.85
-31.28
-2.27
31.27
47.77
35.92
20.46
16.65
9.49
2.22
9.8
24.26
41.5
70.31
101.13
120.39
130.22
131.35
131.63
145.72
162.41
177.54
221.04
300.11
393.17
468.68
476.46
411.95
342.26
304.95
273.64
230.7
189.29
156.61
126.06
94.66
65.62
39.86
15.76
-7.13
-28.09
-47.13
-64.64
-80.75
-95.28
-108.33
-120.07
-130.55
-139.82
-147.91
-154.91
-160.82
-165.71
-169.69
-172.78
-175
-176.42
-177.2
-177.44
-176.97
-175.62
-173.86
-171.64
-168.58
-165.03
-161.19
-157.01
-152.45
-147.47
-142.3
-136.94
-131.32
-125.43
-119.5
-113.35
-107.09
-100.72
-94.31
-104.61
-171.3
-284.67
-358.59
-359.13
-346.68
-344.88
-312.87
-252.24
-205.65
-179.1
-154.99
-127.72
-100.47
-76.79
-46.17
-0.59
46.37
84.72
117.92
143.34
148.77
135.86
128.77
137.16
145.57
152.39
171.52
198.08
211.37
210.46
209.7
208.17
209.64
234.83
283.48
323.4
329.53
309.58
287.73
272.27
253.54
235.2
227.38
221.14
210.3
200.41
189.32
172.84
158
152.38
154.41
160.52
159.66
134.02
96.68
80.27
84.59
92.83
95.29
81.82
59.36
50.19
55.04
58.03
56.46
55.77
55.4
49.99
36.24
20.71
11.73
7.41
-1.16
-16.78
-29.29
-28.38
-29.78
-49.75
-64.35
-53.12
-40.42
-43.61
-46.46
-46.02
-61.01
-93.03
-114.12
-106.68
-90.91
-89.68
-88.8
-67.54
-37.1
-12.77
9.16
1.08
-70.92
-132.43
-108.07
-86.34
-129.24
-140.8
-111.28
-140.75
-194.92
-177.77
-125.38
-122.74
-161.88
-175.44
-144.96
-107.54
-83.46
-73.35
-83.04
-94.16
-82.31
-64.59
-65.04
-79.56
-83.84
-57.8
-30.81
-58.65
-130.36
-168.23
-133.2
-65.95
-22.1
-14.61
-20.19
-19.13
-14.96
-17.81
-35.43
-70.81
-102.36
-99.7
-68.95
-37.72
-12.75
4.89
8.38
5.5
8.58
18.79
31.5
44.83
57.96
66.54
75.11
92.57
107.19
105.95
102.01
105.54
105.19
96.44
88.95
87.47
89.6
88.73
79.37
69.19
66.17
62.23
50.01
33.5
16.14
5.3
9.21
18.73
23.02
24.65
23.19
16.56
22.21
81.7
203.75
283.99
236.82
148.27
84.22
2.59
-66.36
-83.5
-98.77
-123.6
-124.63
-116.67
-115.27
-95
-70.41
-89.97
-122.84
-108.56
-73.89
-72.82
-94.43
-99.34
-78.58
-47.39
-20.28
-2.91
9.4
20.72
26.88
23.77
7.37
-27.19
-66.46
-73.25
-37.58
3.06
21.51
24.98
23.99
18.93
7.61
1.38
11.33
24.53
31.65
38.74
45.74
55.29
69.89
74.23
61.15
49.27
50.76
51.68
34.67
20.75
71.06
143.39
83.97
-33.71
56.41
294.97
315.83
59.99
-95.38
-9.14
7.54
-142.12
-203.97
-124.2
-75.28
-97.04
-104.78
-66.15
-17.23
3.42
-6.76
-25.56
-31.3
-19.18
-2.05
-18.67
-108.52
-157.72
-9.62
207.41
282.59
219.25
70.24
-113.34
-192.66
-113.28
-23.94
-35.71
-68.65
-61.39
-59.85
-73.62
-61.56
-23.45
7.25
15.65
7.08
-15.21
-61.03
-114.26
-130.43
-122.81
-124.09
-77.49
36.6
82.53
6.16
-52.63
-19.37
27.59
24.16
-13.33
-64.12
-125.15
-172.71
-193.88
-201.68
-192.49
-157.29
-115.12
-85.67
-62.47
-36.19
-10.46
10.71
29.68
48.5
65.95
80.96
93.88
105.83
116.86
126.39
134.51
141.46
147.45
152.27
156.14
159.03
161.03
162.19
162.58
162.2
161.26
159.88
157.8
154.93
151.64
147.64
142.97
138.4
133.88
128.74
123.23
117.61
111.47
104.84
98.39
92.34
86.07
81.5
97.14
157.29
233.8
266.09
261.65
276.7
316.09
335.98
334.64
353.06
363.55
299.97
182.64
74.11
5.2
-18.69
-38.01
-98.02
-167.88
-203.48
-224
-255.05
-284.47
-300.81
-334.59
-382.32
-318.09
-122.01
1.63
-18.95
-66.99
-137.56
-274.94
-393.63
-405.43
-343.79
-272.48
-205.75
-148.73
-126.56
-156.34
-212.47
-212.73
-126.22
-97.2
-220.75
-284.14
-130.74
-27.49
-175.94
-326.77
-290.31
-216.45
-212.75
-212.77
-176.43
-135.21
-111.45
-91.65
-55.41
-17.34
-39.84
-138.39
-238.09
-303.15
-304.34
-159.59
59.36
164.48
144.82
113.64
85.67
13.54
-87.39
-155.14
-142.35
-57.53
23.19
50.58
60.39
68.3
43.95
9.82
3.46
-9.45
-23.5
61.32
242.86
343.29
251.99
97.15
16.52
-41.99
-125.71
-147.72
-55.73
69.35
137.59
156.6
180.38
209.67
156.48
11.62
22.16
298.84
474.65
357.43
264.55
291.53
216.72
84.28
58.3
78.93
67.52
72.86
107.19
118.7
118.27
139
146.8
123.14
89.6
48.42
27.3
62.59
146.61
226.59
209.21
110.54
86.45
150.21
143.92
51.84
-3.6
-8.69
-16.61
-19.64
-6.41
-4.2
-28.25
-58.03
-48.18
23.8
63.02
-38.39
-129.12
-11.83
139.05
82.2
-72.09
-121.86
-91.07
-89.98
-108.64
-86.91
-42.54
-27.05
-55.14
-106.65
-99.39
-7.81
-24.31
-200.19
-223.46
-10.18
99.76
-36.84
-180.51
-178.89
-145.01
-147.85
-120.37
-59.82
-37.82
-64.53
-90.96
-97.58
-101.36
-106.03
-88.53
-55.01
-58.6
-98.23
-75.95
29.6
64.58
-32.38
-92.68
-42.94
-12.5
-42.28
-47.73
-17.58
-0.7
-8.12
-21.02
-1.58
38.77
11.03
-64.75
-43.85
61.65
96.71
73.34
113.31
150.41
74.74
-16.64
-13.51
30.68
35.2
8.09
-1.04
8.57
-2.13
-27.11
-21.17
30.29
88.37
104.05
102.47
114.91
76.96
-22.05
-77.05
-58.45
-29.04
-6.76
23.97
37.29
9.03
-9.93
-9.43
-71.29
-158.51
-151.34
-24.88
136.69
153.81
14.33
-53.28
18.84
78.5
45.76
-14.06
-15.18
36.89
72.56
65.9
51.1
42.85
10.36
-31.11
-22.3
20.23
30.53
-37.03
-184.18
-308.75
-293.44
-163.34
-27.61
60.56
108.79
122.67
106.6
80.68
58.7
45.52
61
123.1
185.56
196.19
224.93
314.21
310.06
172.14
89.87
59.31
-28.95
-44.38
53.39
68.81
-12.59
-30.18
11.93
3.92
-52.76
-96.65
-129.61
-174.85
-185.86
-110.74
-22.69
-0.5
42.67
147.42
172.14
77.84
-21.14
-84.22
-110.67
-63.75
26.92
81.22
91.55
87.32
59.63
5.37
-55.76
-108.08
-146.4
-141.11
-65.3
5.89
2.94
-26.8
-49.78
-72.16
-61.34
-14.85
17.33
30.88
48.51
44.86
0.6
-48.5
-79.03
-114.74
-127.9
-23.9
112.51
74.73
-49.28
-57.48
-27.53
-76.9
-137.44
-146.55
-127.52
-88.44
-36.1
-16.1
-43.66
-80.26
-130.93
-191.41
-138.59
25.57
104.14
49.46
-24.54
-79.93
-148.07
-202.09
-188.27
-148.2
-147.64
-157.36
-132.43
-101.11
-101.06
-125.29
-161.77
-179.04
-107.31
44.09
143.32
120.54
49.73
-8.31
-55.22
-70.69
-29.57
57.42
153.56
218.78
248.46
266.53
275.55
258.93
215.48
156.98
105.63
94.87
120.17
124.8
81.04
8.7
-86.66
-170.69
-171.23
-109.3
-71.92
-66.7
-51.24
-23.91
-4.57
7.02
20.48
35.72
48.38
58.47
68.24
77.58
85.27
91.42
96.97
102.11
106.02
108.73
110.83
112.61
113.84
114.07
113.52
112.41
110.96
109.26
107.14
104.59
101.95
99.05
95.21
90.99
87.1
83.14
78.43
73.49
68.68
63.78
58.68
53.48
48.33
43.13
37.89
32.69
27.5
22.36
17.27
12.24
7.29
2.43
-2.32
-6.97
-11.49
-15.79
-15.36
32.41
141.27
152.93
74.38
201.12
378.82
333.07
314.1
231.76
-49.96
-23.16
232.34
254.49
223.71
65.49
-314.5
-342.73
-149.68
-378.6
-647.91
-513.81
-358.64
-348.28
-338.88
-321.98
-187.74
-83.45
-223.56
-171.59
195.17
366.71
350.68
379.8
339.48
223.76
161.95
138.82
92.56
36.16
-2.98
-33.55
-67.77
-100.93
-127.91
-151.13
-173.17
-193.37
-210.76
-225.7
-238.31
-248.43
-256.76
-263.75
-268.82
-271.91
-273.96
-274.72
-273.69
-271.3
-268.04
-263.68
-258.23
-251.87
-244.65
-236.41
-227.77
-218.98
-209.57
-199.16
-188.04
-176.87
-165.86
-154.39
-142.92
-131.11
-118.99
-106.76
-94.59
-82.47
-70.32
-58.32
-46.41
-34.64
-23.09
-11.71
-0.53
10.34
20.98
31.32
41.29
51.04
60.36
69.4
78.03
86.29
94.15
101.64
108.74
115.39
121.71
127.57
133.02
138.05
142.68
146.92
150.77
154.2
157.21
159.81
162.09
163.98
165.48
166.59
167.32
167.77
167.83
167.57
167.01
166.14
164.95
163.51
161.78
159.72
157.52
154.98
152.27
149.28
146.15
142.74
139.25
135.52
131.7
127.65
123.4
118.89
114.43
110.27
105.73
100.91
96.41
92.03
87.17
82.13
77.3
72.59
67.64
62.62
57.51
52.57
48.2
43.63
38.76
33.59
28.62
24.16
20.29
16.18
11.79
7.27
3.13
-0.96
-4.35
-7.7
-11.43
-15.52
-19.03
-22.45
-25.61
-28.38
-30.95
-33.89
-36.8
-39.5
-42.1
-44.18
-46.25
-48.23
-50.06
-51.63
-53.18
-54.6
-55.62
-56.65
-58.16
-59.4
-60.13
-60.61
-61.27
-61.56
-161.36
-438.38
-512.95
-100.27
234.05
-3.73
-548.71
-933.15
-905.41
-651.7
-526.44
-520.04
-455.74
-348.24
-278.31
-232.19
-173.64
-111.58
-61.86
-18.8
24.72
65.64
101.29
133.41
163.42
190.56
214.41
235.63
254.52
270.93
284.93
296.88
306.7
314.56
320.58
324.97
327.58
328.74
328.44
326.83
323.9
319.84
314.76
308.59
301.57
293.69
285.02
275.72
265.75
255.23
244.23
232.76
220.95
208.83
196.41
183.79
171.02
158.1
145.15
132.15
119.14
106.18
93.3
80.55
67.94
55.49
43.26
31.23
19.47
7.98
-3.21
-14.11
-24.67
-34.88
-44.74
-54.23
-63.35
-72.05
-80.39
-88.32
-95.82
-102.92
-109.6
-115.86
-121.71
-127.14
-132.14
-136.74
-140.91
-144.69
-148.05
-151.01
-153.58
-155.77
-157.56
-159
-160.08
-160.8
-161.16
-161.21
-160.91
-160.3
-159.39
-158.19
-156.7
-154.94
-152.91
-150.66
-148.16
-145.44
-142.52
-139.38
-136.08
-132.58
-128.93
-125.12
-121.17
-117.11
-112.91
-108.63
-104.24
-99.8
-95.27
-90.66
-86.04
-81.34
-76.63
-71.92
-67.2
-62.46
-57.73
-53.02
-48.34
-43.69
-39.1
-34.53
-30.04
-25.61
-21.24
-16.95
-12.74
-8.63
-4.6
-0.67
3.16
6.88
10.5
14
17.38
20.65
23.79
26.81
29.7
32.47
35.11
37.62
39.99
42.24
44.35
46.33
48.18
49.9
51.49
52.95
54.28
55.49
56.57
57.52
58.35
59.06
59.66
60.13
60.5
60.76
60.9
60.94
60.88
60.72
60.46
60.12
59.68
59.15
58.54
57.85
57.09
56.25
55.35
54.38
53.34
52.25
51.1
49.9
48.66
47.37
46.04
44.67
43.27
41.84
40.38
38.89
37.39
35.87
34.33
32.78
31.23
29.67
28.1
26.54
24.98
23.43
21.88
20.34
18.81
17.3
15.81
14.34
12.88
11.46
10.05
8.67
7.32
